#T (K)    alpha (10^(-5) K^(-1))
#P= 0.000000 GPa
    0.0       0.0000000000000
  100.0       0.7076426496475
  200.0       1.4566318581487
  300.0       1.9830037873818
  400.0       2.2966978132788
  500.0       2.5077502471254
  600.0       2.6667205261612
  700.0       2.7998428121137
  800.0       2.9198446685830
  900.0       3.0337833698564
 1000.0       3.1457812733333
 1100.0       3.2584775861686
 1200.0       3.3736853973149
 1300.0       3.4928010785987
 1400.0       3.6169521453017
 1500.0       3.7471458500535
 1600.0       3.8843509189426
 1700.0       4.0295174926141
 1800.0       4.1836528303136
 1900.0       4.3478233629668
 2000.0       4.5231945324669
 2100.0       4.7110843997589
 2200.0       4.9129702810630
 2300.0       5.1305239035329
 2400.0       5.3656310236264
 2500.0       5.6205139387233
 2600.0       5.8978473948835
 2700.0       6.2005300148410
 2800.0       6.5322664135606
 2900.0       6.8973083158236
 3000.0       7.3006101394193
 3100.0       7.7487094685044
 3200.0       8.2491583507434
 3300.0       8.8103978428422
 3400.0       9.4389701529762
 3500.0      10.1412224378829
 3600.0      10.9254690174679
 3700.0      11.7966412258241
 3800.0      12.7649205228995
 3900.0      13.8364514613342
 4000.0      15.0184070812850
 4100.0      16.3189774271512
 4200.0      17.7453515756662
 4300.0      19.3062334226583
 4400.0      21.0141998232045
 4500.0      22.8212404488705
 4600.0      24.9083093516958
 4700.0      26.7399877540513
 4800.0      30.1360940485420
 4900.0      28.5318588621301
 5000.0      13.4039476644826
 5100.0       3.6462625189425
 5200.0       4.5761239680717
 5300.0       4.6267875835110
 5400.0       4.3829115210501
 5500.0       4.2013568357671
 5600.0       4.0596663557085
 5700.0       4.0591779639141
 5800.0       3.9245654086415
 5900.0       3.7967833285351
 6000.0       5.5488496927095

#P= 1.000000 GPa
    0.0       0.0000000000000
  100.0       0.6626808047023
  200.0       1.3785184665113
  300.0       1.8899191497854
  400.0       2.1952827899321
  500.0       2.3998905331590
  600.0       2.5529632400948
  700.0       2.6802222104893
  800.0       2.7941721527941
  900.0       2.9017532123900
 1000.0       3.0069983281231
 1100.0       3.1124739358350
 1200.0       3.2199325080018
 1300.0       3.3306973680228
 1400.0       3.4458205855171
 1500.0       3.5662289938439
 1600.0       3.6927981804899
 1700.0       3.8263734691360
 1800.0       3.9678389459436
 1900.0       4.1181215099681
 2000.0       4.2782250646336
 2100.0       4.4492734628465
 2200.0       4.6325188583797
 2300.0       4.8293669146989
 2400.0       5.0413904210082
 2500.0       5.2704301987517
 2600.0       5.5186877670736
 2700.0       5.7885249321129
 2800.0       6.0829404447178
 2900.0       6.4053430914849
 3000.0       6.7596431947874
 3100.0       7.1510364123525
 3200.0       7.5852256896022
 3300.0       8.0696886736093
 3400.0       8.6130719957516
 3500.0       9.2239142262700
 3600.0       9.9098623493951
 3700.0      10.6770059096203
 3800.0      11.5347156386676
 3900.0      12.4894015148612
 4000.0      13.5499029987284
 4100.0      14.7240155840249
 4200.0      16.0200611624939
 4300.0      17.4473732051316
 4400.0      19.0190464912805
 4500.0      20.6982476549082
 4600.0      22.6404440618424
 4700.0      24.3810159643385
 4800.0      27.5293016602731
 4900.0      26.2803875774839
 5000.0      12.9393508793561
 5100.0       4.2624860187794
 5200.0       5.0779559832136
 5300.0       5.1176171480917
 5400.0       4.8838455106839
 5500.0       4.7149616844260
 5600.0       4.5733038708171
 5700.0       4.5586344872533
 5800.0       4.4241699790660
 5900.0       4.2981185832708
 6000.0       5.8927456968270

#P= 2.000000 GPa
    0.0       0.0000000000000
  100.0       0.6200822113494
  200.0       1.3045180753274
  300.0       1.8017255030510
  400.0       2.0992396376582
  500.0       2.2978306172823
  600.0       2.4454349394853
  700.0       2.5672796837678
  800.0       2.6756657671780
  900.0       2.7774147165634
 1000.0       2.8764812396732
 1100.0       2.9753719176657
 1200.0       3.0757765485069
 1300.0       3.1789579477322
 1400.0       3.2859086625309
 1500.0       3.3974833006723
 1600.0       3.5144755407821
 1700.0       3.6376444352582
 1800.0       3.7677730080556
 1900.0       3.9056705398238
 2000.0       4.0522061448006
 2100.0       4.2083457091717
 2200.0       4.3751561338278
 2300.0       4.5538268458852
 2400.0       4.7456786900600
 2500.0       4.9522489172132
 2600.0       5.1753636417018
 2700.0       5.4169570091342
 2800.0       5.6794872476406
 2900.0       5.9657075057172
 3000.0       6.2787437054855
 3100.0       6.6227475008077
 3200.0       7.0021751101414
 3300.0       7.4228785718323
 3400.0       7.8913875639101
 3500.0       8.4163896970333
 3600.0       9.0081508314730
 3700.0       9.6746091429092
 3800.0      10.4244384158810
 3900.0      11.2643574992593
 4000.0      12.2039182534385
 4100.0      13.2509187327712
 4200.0      14.4144130001991
 4300.0      15.7042174042928
 4400.0      17.1337234269864
 4500.0      18.6757436449515
 4600.0      20.4632168710213
 4700.0      22.0970227194432
 4800.0      24.9877446311425
 4900.0      24.0508308295090
 5000.0      12.4032564820705
 5100.0       4.7627804407941
 5200.0       5.4744787978194
 5300.0       5.5079479477754
 5400.0       5.2893110445583
 5500.0       5.1365264680967
 5600.0       4.9994899408627
 5700.0       4.9756110933344
 5800.0       4.8452344659916
 5900.0       4.7243240696964
 6000.0       6.1687392581095

#P= 3.000000 GPa
    0.0       0.0000000000000
  100.0       0.5796880893719
  200.0       1.2343504702645
  300.0       1.7180838833823
  400.0       2.0081907072375
  500.0       2.2011544585637
  600.0       2.3436774685966
  700.0       2.4605167479810
  800.0       2.5637746610345
  900.0       2.6601635603797
 1000.0       2.7535696261804
 1100.0       2.8464357265942
 1200.0       2.9404062834074
 1300.0       3.0366898721055
 1400.0       3.1362198100439
 1500.0       3.2397943236507
 1600.0       3.3481410513134
 1700.0       3.4619416075799
 1800.0       3.5818916186710
 1900.0       3.7087050175864
 2000.0       3.8431390091335
 2100.0       3.9860281118588
 2200.0       4.1382864898827
 2300.0       4.3009260454286
 2400.0       4.4750646946296
 2500.0       4.6619932365678
 2600.0       4.8632376759048
 2700.0       5.0803972595433
 2800.0       5.3154953715546
 2900.0       5.5707822272911
 3000.0       5.8487809428293
 3100.0       6.1528373148288
 3200.0       6.4864833344828
 3300.0       6.8543365041614
 3400.0       7.2614707936139
 3500.0       7.7144966036347
 3600.0       8.2215958542432
 3700.0       8.7923877244381
 3800.0       9.4383620357105
 3900.0      10.1670738054833
 4000.0      10.9880439437197
 4100.0      11.9092652904010
 4200.0      12.9401767553129
 4300.0      14.0909043823904
 4400.0      15.3749001964864
 4500.0      16.7730654874784
 4600.0      18.3986886221334
 4700.0      19.9123978450150
 4800.0      22.5393638996937
 4900.0      21.8691689212854
 5000.0      11.8048428030460
 5100.0       5.1458319645466
 5200.0       5.7650596392865
 5300.0       5.7969533282370
 5400.0       5.5981011599904
 5500.0       5.4645559172052
 5600.0       5.3365468502071
 5700.0       5.3083751750295
 5800.0       5.1859078556063
 5900.0       5.0734521295302
 6000.0       6.3758623125082

#P= 4.000000 GPa
    0.0       0.0000000000000
  100.0       0.5413523069537
  200.0       1.1677600283964
  300.0       1.6386854531033
  400.0       1.9217920720096
  500.0       2.1094832676737
  600.0       2.2472778867686
  700.0       2.3594802169519
  800.0       2.4580029829306
  900.0       2.5494588025659
 1000.0       2.6376636787507
 1100.0       2.7250116665060
 1200.0       2.8131016429296
 1300.0       2.9030900125447
 1400.0       2.9958702480777
 1500.0       3.0921851493468
 1600.0       3.1927012844404
 1700.0       3.2980416260696
 1800.0       3.4088284901159
 1900.0       3.5256911224515
 2000.0       3.6492936730838
 2100.0       3.7803617133898
 2200.0       3.9196837680800
 2300.0       4.0681263720524
 2400.0       4.2266393819383
 2500.0       4.3963146371643
 2600.0       4.5784347155841
 2700.0       4.7743316521042
 2800.0       4.9856859794216
 2900.0       5.2143468428378
 3000.0       5.4623706016408
 3100.0       5.7324822543667
 3200.0       6.0275047803341
 3300.0       6.3511286080445
 3400.0       6.7073335088914
 3500.0       7.1012635328641
 3600.0       7.5392887748497
 3700.0       8.0284860816107
 3800.0       8.5789497986841
 3900.0       9.2013551021781
 4000.0       9.9077748060324
 4100.0      10.7064166531434
 4200.0      11.6068214374339
 4300.0      12.6192399752945
 4400.0      13.7569496834588
 4500.0      15.0074102887086
 4600.0      16.4669933973321
 4700.0      17.8500184876899
 4800.0      20.2109276421015
 4900.0      19.7614553944797
 5000.0      11.1556799807218
 5100.0       5.4135767022760
 5200.0       5.9519068762369
 5300.0       5.9863927418589
 5400.0       5.8113457330341
 5500.0       5.6996978947877
 5600.0       5.5847350480907
 5700.0       5.5569355058822
 5800.0       5.4459185009838
 5900.0       5.3449925660381
 6000.0       6.5144201289746

#P= 5.000000 GPa
    0.0       0.0000000000000
  100.0       0.5049415054010
  200.0       1.1045123736067
  300.0       1.5632480358528
  400.0       1.8397296671920
  500.0       2.0224731607973
  600.0       2.1558600080556
  700.0       2.2637591936337
  800.0       2.3579036846365
  900.0       2.4448089754638
 1000.0       2.5282287948404
 1100.0       2.6105116780598
 1200.0       2.6932119613781
 1300.0       2.7774501643310
 1400.0       2.8640732553212
 1500.0       2.9537805083335
 1600.0       3.0471929557169
 1700.0       3.1448733548215
 1800.0       3.2473829432052
 1900.0       3.3552850797385
 2000.0       3.4691638708416
 2100.0       3.5896510471808
 2200.0       3.7174305660091
 2300.0       3.8532499465150
 2400.0       3.9979212724628
 2500.0       4.1523727281639
 2600.0       4.3176883687146
 2700.0       4.4949859214062
 2800.0       4.6856694479929
 2900.0       4.8912714490865
 3000.0       5.1134817762313
 3100.0       5.3545328328666
 3200.0       5.6167105266327
 3300.0       5.9029898817040
 3400.0       6.2165251516611
 3500.0       6.5613814573746
 3600.0       6.9425457528031
 3700.0       7.3654322206088
 3800.0       7.8377957532622
 3900.0       8.3674870004751
 4000.0       8.9665935681464
 4100.0       9.6474288700089
 4200.0      10.4213825515329
 4300.0      11.2984658148692
 4400.0      12.2916111368088
 4500.0      13.3933746230580
 4600.0      14.6857425064782
 4700.0      15.9305217095155
 4800.0      18.0271275679500
 4900.0      17.7529478682267
 5000.0      10.4695286290314
 5100.0       5.5714120113385
 5200.0       6.0402415863288
 5300.0       6.0807794396278
 5400.0       5.9326798506505
 5500.0       5.8449107362574
 5600.0       5.7464147887151
 5700.0       5.7231937967816
 5800.0       5.6267190945081
 5900.0       5.5400108888593
 6000.0       6.5860945373424

#P= 6.000000 GPa
    0.0       0.0000000000000
  100.0       0.4703322100476
  200.0       1.0443920479735
  300.0       1.4915148716511
  400.0       1.7617160994061
  500.0       1.9398100676064
  600.0       2.0690810696576
  700.0       2.1729815462730
  800.0       2.2630700316331
  900.0       2.3457710597070
 1000.0       2.4247815381998
 1100.0       2.5024040172742
 1200.0       2.5801598123488
 1300.0       2.6591302499054
 1400.0       2.7401255404393
 1500.0       2.8238105725526
 1600.0       2.9107561471087
 1700.0       3.0014839007713
 1800.0       3.0965026051654
 1900.0       3.1963114879872
 2000.0       3.3014307502324
 2100.0       3.4124174314262
 2200.0       3.5298654873897
 2300.0       3.6544198920007
 2400.0       3.7867812806122
 2500.0       3.9277434703231
 2600.0       4.0782271312784
 2700.0       4.2391760472561
 2800.0       4.4117707691170
 2900.0       4.5972899286198
 3000.0       4.7971328132192
 3100.0       5.0131441335787
 3200.0       5.2471840858347
 3300.0       5.5016806037438
 3400.0       5.7791572884766
 3500.0       6.0828590049427
 3600.0       6.4167401997180
 3700.0       6.7850008582279
 3800.0       7.1936728351702
 3900.0       7.6486902180887
 4000.0       8.1591090731943
 4100.0       8.7345472226932
 4200.0       9.3884853466664
 4300.0      10.1351311159199
 4400.0      10.9877833979468
 4500.0      11.9426230953355
 4600.0      13.0695567888112
 4700.0      14.1716896622580
 4800.0      16.0097714437387
 4900.0      15.8672641129644
 5000.0       9.7620359569056
 5100.0       5.6282655260673
 5200.0       6.0383502406603
 5300.0       6.0874444573751
 5400.0       5.9683224358064
 5500.0       5.9055521540124
 5600.0       5.8261400521979
 5700.0       5.8110383074984
 5800.0       5.7315816452760
 5900.0       5.6612431769945
 6000.0       6.5940106399129

#P= 7.000000 GPa
    0.0       0.0000000000000
  100.0       0.4374123447442
  200.0       0.9872014501080
  300.0       1.4232489154526
  400.0       1.6874887071376
  500.0       1.8612070977748
  600.0       1.9866287465264
  700.0       2.0868076003480
  800.0       2.1731329000785
  900.0       2.2519440588431
 1000.0       2.3268826021509
 1100.0       2.4002121139709
 1200.0       2.4734217813584
 1300.0       2.5475570391177
 1400.0       2.6234012892600
 1500.0       2.7015797389223
 1600.0       2.7826301594351
 1700.0       2.8670338285494
 1800.0       2.9552492016774
 1900.0       3.0477319166897
 2000.0       3.1449430566737
 2100.0       3.2473703147991
 2200.0       3.3555379630968
 2300.0       3.4700077533251
 2400.0       3.5913830243035
 2500.0       3.7203465115310
 2600.0       3.8576843184406
 2700.0       4.0041992695408
 2800.0       4.1608887191521
 2900.0       4.3288261827627
 3000.0       4.5091801927884
 3100.0       4.7034822418781
 3200.0       4.9132627050791
 3300.0       5.1405146115362
 3400.0       5.3872766526314
 3500.0       5.6561703348280
 3600.0       5.9503574376991
 3700.0       6.2731385990475
 3800.0       6.6292727089356
 3900.0       7.0232896824171
 4000.0       7.4621589161495
 4100.0       7.9531257379711
 4200.0       8.5059606225080
 4300.0       9.1330864917516
 4400.0       9.8514442740893
 4500.0      10.6637045057360
 4600.0      11.6297535895240
 4700.0      12.5879877609757
 4800.0      14.1771286933164
 4900.0      14.1256266324205
 5000.0       9.0503530494180
 5100.0       5.5965173850853
 5200.0       5.9575145877073
 5300.0       6.0164919880728
 5400.0       5.9270592609750
 5500.0       5.8893830109126
 5600.0       5.8306780890673
 5700.0       5.8263730255638
 5800.0       5.7656360753453
 5900.0       5.7131417089137
 6000.0       6.5427618309459

#P= 8.000000 GPa
    0.0       0.0000000000000
  100.0       0.4060779017834
  200.0       0.9327589856839
  300.0       1.3582329542039
  400.0       1.6168064307276
  500.0       1.7864010158394
  600.0       1.9082180872059
  700.0       2.0049274854968
  800.0       2.0877563757879
  900.0       2.1629623649484
 1000.0       2.2341357251598
 1100.0       2.3035037642561
 1200.0       2.3725251311900
 1300.0       2.4422168827346
 1400.0       2.5133333917565
 1500.0       2.5864704942157
 1600.0       2.6621351502927
 1700.0       2.7407689448806
 1800.0       2.8227981710785
 1900.0       2.9086296972617
 2000.0       2.9986768986364
 2100.0       3.0933772086299
 2200.0       3.1931859529418
 2300.0       3.2985947311183
 2400.0       3.4101317961152
 2500.0       3.5283852019401
 2600.0       3.6540277123562
 2700.0       3.7877461383468
 2800.0       3.9303885179352
 2900.0       4.0828613978579
 3000.0       4.2461466566867
 3100.0       4.4215239784741
 3200.0       4.6102612402145
 3300.0       4.8140076938914
 3400.0       5.0344243235969
 3500.0       5.2736432920744
 3600.0       5.5342261943061
 3700.0       5.8187893113930
 3800.0       6.1311300278091
 3900.0       6.4747537284550
 4000.0       6.8551092890232
 4100.0       7.2776997909184
 4200.0       7.7498961640094
 4300.0       8.2809992051639
 4400.0       8.8834262145217
 4500.0       9.5621427384602
 4600.0      10.3741687848484
 4700.0      11.1902905979710
 4800.0      12.5434693858573
 4900.0      12.5462520845130
 5000.0       8.3527061231126
 5100.0       5.4917862302458
 5200.0       5.8118269993422
 5300.0       5.8806514215105
 5400.0       5.8201328474406
 5500.0       5.8064866805814
 5600.0       5.7689537799932
 5700.0       5.7770807849939
 5800.0       5.7358502313220
 5900.0       5.7018685351454
 6000.0       6.4383916462513

#P= 9.000000 GPa
    0.0       0.0000000000000
  100.0       0.3762331696277
  200.0       0.8808969516855
  300.0       1.2962668004097
  400.0       1.5494483594193
  500.0       1.7151504159301
  600.0       1.8335876300067
  700.0       1.9270579542220
  800.0       2.0066338781297
  900.0       2.0784935481887
 1000.0       2.1461803970980
 1100.0       2.2118860641934
 1200.0       2.2770440519657
 1300.0       2.3426438295144
 1400.0       2.4094142081078
 1500.0       2.4779277806938
 1600.0       2.5486585097022
 1700.0       2.6220229716757
 1800.0       2.6984095854696
 1900.0       2.7781886303597
 2000.0       2.8617367302070
 2100.0       2.9494357594351
 2200.0       3.0416940577865
 2300.0       3.1389436042206
 2400.0       3.2416410523254
 2500.0       3.3502996993593
 2600.0       3.4655006553730
 2700.0       3.5878325567940
 2800.0       3.7180182481602
 2900.0       3.8568285162114
 3000.0       4.0050949404089
 3100.0       4.1638907513859
 3200.0       4.3342744799896
 3300.0       4.5176205766594
 3400.0       4.7152931997912
 3500.0       4.9290417273762
 3600.0       5.1609530640701
 3700.0       5.4131294683776
 3800.0       5.6886312184196
 3900.0       5.9901978974084
 4000.0       6.3221482180650
 4100.0       6.6887199708399
 4200.0       7.0955658957017
 4300.0       7.5497574613617
 4400.0       8.0606395521000
 4500.0       8.6308148084622
 4600.0       9.3063962249788
 4700.0       9.9858711246295
 4800.0      11.1188028159003
 4900.0      11.1439318226458
 5000.0       7.6879593756208
 5100.0       5.3326043044879
 5200.0       5.6179111268592
 5300.0       5.6950414905773
 5400.0       5.6610505649793
 5500.0       5.6691121427267
 5600.0       5.6519245038880
 5700.0       5.6729241629489
 5800.0       5.6509535162050
 5900.0       5.6352381315086
 6000.0       6.2883338471453

#P= 10.000000 GPa
    0.0       0.0000000000000
  100.0       0.3477899754990
  200.0       0.8314610518894
  300.0       1.2371657290175
  400.0       1.4852106151025
  500.0       1.6472338315175
  600.0       1.7624972837623
  700.0       1.8529397280892
  800.0       1.9294851223167
  900.0       1.9982343866845
 1000.0       2.0626877914766
 1100.0       2.1250032856066
 1200.0       2.1865915575401
 1300.0       2.2484162807450
 1400.0       2.3111860805170
 1500.0       2.3754490243123
 1600.0       2.4416548111949
 1700.0       2.5101942068753
 1800.0       2.5814239230692
 1900.0       2.6556870940869
 2000.0       2.7333177766810
 2100.0       2.8146636083540
 2200.0       2.9000851145967
 2300.0       2.9899596737277
 2400.0       3.0846955718901
 2500.0       3.1847356538979
 2600.0       3.2905798067372
 2700.0       3.4027417162985
 2800.0       3.5218407048175
 2900.0       3.6485326548316
 3000.0       3.7835258285303
 3100.0       3.9277257176975
 3200.0       4.0820216954392
 3300.0       4.2475660810746
 3400.0       4.4254879934952
 3500.0       4.6172331631967
 3600.0       4.8245167570293
 3700.0       5.0490408152348
 3800.0       5.2932908988438
 3900.0       5.5594430778760
 4000.0       5.8509469786852
 4100.0       6.1711114837795
 4200.0       6.5243330537083
 4300.0       6.9160770610913
 4400.0       7.3534619640818
 4500.0       7.8377924217507
 4600.0       8.4060809921814
 4700.0       8.9721284628562
