# T (K)      B_S (GPa)
# P = 0.000000 (GPa)
    1.0     178.3108915422721
  100.0     177.8828393603526
  200.0     176.2531086072598
  300.0     174.2973799220193
  400.0     172.0866839818223
  500.0     169.8209206623551
  600.0     167.4837547022888
  700.0     165.1245723491266
  800.0     162.7462475926958
  900.0     160.3617015605834
 1000.0     157.9753833729490
 1100.0     155.5927447967288
 1200.0     153.2171307262871
 1300.0     150.8518761393191
 1400.0     148.5003997349760
 1500.0     146.1649893388424
 1600.0     143.8491075082743
 1700.0     141.5555036843010
 1800.0     139.2872020105441
 1900.0     137.0478937820254
 2000.0     134.8406572857357
 2100.0     132.6694290030996
 2200.0     130.5385987805487
 2300.0     128.4527957674328
 2400.0     126.4175402724273
 2500.0     124.4365495365776
 2600.0     122.5169242968899
 2700.0     120.6705380385391
 2800.0     118.8923761345228
 2900.0     117.2104216060160
 3000.0     115.6171759363230
 3100.0     114.1278860587033
 3200.0     112.7740186644154
 3300.0     111.5262192954896
 3400.0     110.4364689422709
 3500.0     109.3742797163655
 3600.0     108.4147575587503
 3700.0     107.3519575249990
 3800.0     106.2385722429539
 3900.0     104.9314446204053
 4000.0     103.1486751014874
 4100.0     101.1785300554579
 4200.0      98.5337664249024
 4300.0      95.2048264153880
 4400.0      90.7801908379602
 4500.0      86.8461744915870
 4600.0      76.5987163256450
 4700.0     120.5016932613927
 4800.0      33.0368002144049
 4900.0      10.7725994691421
 5000.0      13.2674609133361
 5100.0      13.0486974263916
 5200.0      13.3102514741748
 5300.0      13.6920181832982
 5400.0      22.0681059933879
 5500.0      14.4095750851566
 5600.0       8.3611844299938
 5700.0      16.2282015817702
 5800.0      13.4019067598429
 5900.0      15.6042164955554
 6000.0      16.6105762924195
# P = 1.000000 (GPa)
    1.0     182.3400891135095
  100.0     181.9037579724543
  200.0     180.2681765506395
  300.0     178.3028977483814
  400.0     176.0879697901117
  500.0     173.8158287025757
  600.0     171.4722001104317
  700.0     169.1049646723780
  800.0     166.7172833309462
  900.0     164.3217596987611
 1000.0     161.9227859108426
 1100.0     159.5256126080374
 1200.0     157.1334992857537
 1300.0     154.7495875591863
 1400.0     152.3770864878773
 1500.0     150.0181314793958
 1600.0     147.6759282810521
 1700.0     145.3529898994514
 1800.0     143.0520484867363
 1900.0     140.7764923617096
 2000.0     138.5290594195467
 2100.0     136.3132731008955
 2200.0     134.1330682350687
 2300.0     131.9925767936569
 2400.0     129.8967028289772
 2500.0     127.8486220420015
 2600.0     125.8545455202750
 2700.0     123.9252712473811
 2800.0     122.0554118826884
 2900.0     120.2706154545414
 3000.0     118.5629796819960
 3100.0     116.9461101813841
 3200.0     115.4466616168719
 3300.0     114.0433489242778
 3400.0     112.8102646766945
 3500.0     111.6647834751992
 3600.0     110.6703071268430
 3700.0     109.7108971454534
 3800.0     108.7566305053623
 3900.0     107.7808967980775
 4000.0     106.4757708452509
 4100.0     105.0936326753285
 4200.0     103.1313206551365
 4300.0     100.6623066899014
 4400.0      97.2631786475274
 4500.0      93.9760797213357
 4600.0      85.3849176698718
 4700.0     110.8466574553831
 4800.0      42.8348605254456
 4900.0      10.6827929217659
 5000.0      15.2315503095328
 5100.0      15.4984789107697
 5200.0      16.1706823753611
 5300.0      16.2603082807468
 5400.0      19.8782281866320
 5500.0      16.6940043095373
 5600.0      24.8600753316195
 5700.0      18.1029721946358
 5800.0       6.0373382436810
 5900.0      17.5839563329703
 6000.0      18.3516229438546
# P = 2.000000 (GPa)
    1.0     186.3693048737411
  100.0     185.9254526233713
  200.0     184.2852595853164
  300.0     182.3117157099586
  400.0     180.0935437364174
  500.0     177.8161892141061
  600.0     175.4672800271978
  700.0     173.0933216632160
  800.0     170.6977152182582
  900.0     168.2927758036109
 1000.0     165.8828362250141
 1100.0     163.4729901742993
 1200.0     161.0663622305707
 1300.0     158.6659551179113
 1400.0     156.2748145372325
 1500.0     153.8949065211734
 1600.0     151.5292061880549
 1700.0     149.1800229010419
 1800.0     146.8498540255233
 1900.0     144.5417693695185
 2000.0     142.2582563214131
 2100.0     140.0024514087405
 2200.0     137.7779050610454
 2300.0     135.5882992601024
 2400.0     133.4380253717922
 2500.0     131.3298116271359
 2600.0     129.2690925288823
 2700.0     127.2657156809192
 2800.0     125.3140837943941
 2900.0     123.4378028242701
 3000.0     121.6287920280301
 3100.0     119.8989345787105
 3200.0     118.2722015524420
 3300.0     116.7276172903955
 3400.0     115.3319581853882
 3500.0     114.0245183628003
 3600.0     112.8959165899921
 3700.0     111.8860649795159
 3800.0     110.9521236117362
 3900.0     110.1242475754655
 4000.0     109.1137197344813
 4100.0     108.1519935807978
 4200.0     106.7554415925186
 4300.0     105.0468012304514
 4400.0     102.6213958360782
 4500.0     100.1531318691404
 4600.0      93.2689744224862
 4700.0     109.8173172473983
 4800.0      54.0927798245493
 4900.0       9.1115656514268
 5000.0      17.5552807146666
 5100.0      18.6348441473800
 5200.0      19.7586063241935
 5300.0      19.5644898226196
 5400.0      22.4427115844596
 5500.0      19.6785655198148
 5600.0      24.4076386938022
 5700.0      20.6665152253620
 5800.0      30.5055920763066
 5900.0      20.1746749973465
 6000.0      20.6836858458587
# P = 3.000000 (GPa)
    1.0     190.3985324928289
  100.0     189.9478843255225
  200.0     188.3042441968189
  300.0     186.3236483817853
  400.0     184.1031955901430
  500.0     181.8216937421918
  600.0     179.4686548250268
  700.0     177.0892162109363
  800.0     174.6870378829105
  900.0     172.2741459195288
 1000.0     169.8548289902797
 1100.0     167.4340165373325
 1200.0     165.0147645618811
 1300.0     162.5999121626254
 1400.0     160.1923244237904
 1500.0     157.7938595644571
 1600.0     155.4072835095614
 1700.0     153.0347104631847
 1800.0     150.6784209182752
 1900.0     148.3412435446994
 2000.0     146.0253826358160
 2100.0     143.7337122003900
 2200.0     141.4693854578187
 2300.0     139.2356948871968
 2400.0     137.0366246459931
 2500.0     134.8744695674924
 2600.0     132.7540536856136
 2700.0     130.6844027373698
 2800.0     128.6597378239447
 2900.0     126.7018816437938
 3000.0     124.8027564336578
 3100.0     122.9727114332890
 3200.0     121.2335698714210
 3300.0     119.5645846433075
 3400.0     118.0274077165509
 3500.0     116.5629988193783
 3600.0     115.2567727479474
 3700.0     114.0833011058394
 3800.0     113.0409269405407
 3900.0     112.1923728006514
 4000.0     111.2880014448144
 4100.0     110.5506405096227
 4200.0     109.5400688910193
 4300.0     108.4082595552222
 4400.0     106.7923929080892
 4500.0     105.1402142322755
 4600.0      99.8511436923112
 4700.0     111.6373259640520
 4800.0      65.7113671754475
 4900.0       4.7258834465060
 5000.0      20.0417915810638
 5100.0      22.4883343943951
 5200.0      24.0598726504915
 5300.0      23.6124309812278
 5400.0      26.1366810436218
 5500.0      23.3907443938209
 5600.0      27.1656527185421
 5700.0      23.9438811925507
 5800.0      29.0914650953151
 5900.0      23.4072602059850
 6000.0      23.6382003044240
# P = 4.000000 (GPa)
    1.0     194.4277724125794
  100.0     193.9710177620147
  200.0     192.3250585983194
  300.0     190.3385488613397
  400.0     188.1167043818922
  500.0     185.8320895665561
  600.0     183.4759949643916
  700.0     181.0922531051702
  800.0     178.6847691514848
  900.0     176.2653079293461
 1000.0     173.8381014664064
 1100.0     171.4079570659938
 1200.0     168.9778227285353
 1300.0     166.5504006090901
 1400.0     164.1284321549711
 1500.0     161.7136475860721
 1600.0     159.3086139646377
 1700.0     156.9152986101481
 1800.0     154.5357869484556
 1900.0     152.1726454090164
 2000.0     149.8278996743763
 2100.0     147.5041056275281
 2200.0     145.2041450806421
 2300.0     142.9309670665436
 2400.0     140.6881465622598
 2500.0     138.4776549463573
 2600.0     136.3037705326976
 2700.0     134.1747571451698
 2800.0     132.0848127673168
 2900.0     130.0541330312287
 3000.0     128.0746969689754
 3100.0     126.1556141914099
 3200.0     124.3168261141883
 3300.0     122.5379856775025
 3400.0     120.8761822643165
 3500.0     119.2747353548758
 3600.0     117.8126198486581
 3700.0     116.4624530296891
 3800.0     115.2327913236479
 3900.0     114.2244888333098
 4000.0     113.2551935228224
 4100.0     112.5478354314261
 4200.0     111.7175899691389
 4300.0     110.9345997705518
 4400.0     109.8915543842938
 4500.0     108.9156082951549
 4600.0     104.9776387791603
 4700.0     114.1545322491964
 4800.0      76.4736520141060
 4900.0      -4.4222793152968
 5000.0      22.4498316396409
 5100.0      27.0680586473347
 5200.0      29.0275472008113
 5300.0      28.3725767329222
 5400.0      30.6315172279925
 5500.0      27.8292275150522
 5600.0      31.0135286604157
 5700.0      27.9426586280400
 5800.0      32.1098675740796
 5900.0      27.3010621881484
 6000.0      27.2498970020453
# P = 5.000000 (GPa)
    1.0     198.4570179017884
  100.0     197.9948319188935
  200.0     196.3475977652349
  300.0     194.3562745274264
  400.0     192.1338995442345
  500.0     189.8471413440688
  600.0     187.4889935345968
  700.0     185.1020636710020
  800.0     182.6904779963166
  900.0     180.2657412869845
 1000.0     177.8320586645955
 1100.0     175.3940954230173
 1200.0     172.9547025074224
 1300.0     170.5165047828387
 1400.0     168.0820783681553
 1500.0     165.6530407875216
 1600.0     163.2318171725699
 1700.0     160.8201992814479
 1800.0     158.4201053379975
 1900.0     156.0339162576619
 2000.0     153.6634448788107
 2100.0     151.3110155616469
 2200.0     148.9792067077365
 2300.0     146.6706897492510
 2400.0     144.3887006298326
 2500.0     142.1349223414238
 2600.0     139.9131430402618
 2700.0     137.7309947107470
 2800.0     135.5826769795545
 2900.0     133.4869088063781
 3000.0     131.4358412829632
 3100.0     129.4374593775012
 3200.0     127.5101401763216
 3300.0     125.6339635529815
 3400.0     123.8620446822877
 3500.0     122.1401257533875
 3600.0     120.5411204839455
 3700.0     119.0381650517996
 3800.0     117.6375198386108
 3900.0     116.4300709804551
 4000.0     115.2726087661008
 4100.0     114.4241101115200
 4200.0     113.5750181202260
 4300.0     112.9061630910635
 4400.0     112.1701071555220
 4500.0     111.6436376742645
 4600.0     108.7281053670855
 4700.0     116.4364367329034
 4800.0      85.4821783007703
 4900.0     -20.9875626461254
 5000.0      24.5406500485791
 5100.0      32.3248001247403
 5200.0      34.5750256570157
 5300.0      33.7622659014243
 5400.0      35.7893068502505
 5500.0      32.9425820684981
 5600.0      35.6203914388952
 5700.0      32.6312168960634
 5800.0      36.3594216909724
 5900.0      31.8432454667815
 6000.0      31.5344448154198
# P = 6.000000 (GPa)
    1.0     202.4862780053494
  100.0     202.0192914145763
  200.0     200.3717881454119
  300.0     198.3767016456974
  400.0     196.1546090309594
  500.0     193.8666305254432
  600.0     191.5073896727066
  700.0     189.1183211741466
  800.0     186.7037590450644
  900.0     184.2749742779723
 1000.0     181.8361290044906
 1100.0     179.3917617952219
 1200.0     176.9446704013292
 1300.0     174.4973461146040
 1400.0     172.0522401309118
 1500.0     169.6109136073911
 1600.0     167.1755833467099
 1700.0     164.7479427060137
 1800.0     162.3297565358466
 1900.0     159.9231871482457
 2000.0     157.5298934390023
 2100.0     155.1519957756694
 2200.0     152.7918248750014
 2300.0     150.4517721278595
 2400.0     148.1347857115283
 2500.0     145.8423022677783
 2600.0     143.5776982480559
 2700.0     141.3480056175918
 2800.0     139.1474784361041
 2900.0     136.9935256695877
 3000.0     134.8785010073829
 3100.0     132.8094376802214
 3200.0     130.8032690717731
 3300.0     128.8406741034440
 3400.0     126.9711912072582
 3500.0     125.1429086442120
 3600.0     123.4234452710825
 3700.0     121.7866892872388
 3800.0     120.2368756519946
 3900.0     118.8579007009170
 4000.0     117.5130379280831
 4100.0     116.4449287514069
 4200.0     115.4131049172345
 4300.0     114.6463360615367
 4400.0     113.9613189256104
 4500.0     113.6231368056455
 4600.0     111.3679069609828
 4700.0     118.1522631791763
 4800.0      92.3954554497582
 4900.0     -48.1492585048054
 5000.0      26.1900183701005
 5100.0      38.1372302117395
 5200.0      40.5785760081476
 5300.0      39.6523231526386
 5400.0      41.4855404714327
 5500.0      38.6243688481196
 5600.0      40.8291558714228
 5700.0      37.9276143000430
 5800.0      41.3544113803631
 5900.0      36.9752843136080
 6000.0      36.4615707457361
# P = 7.000000 (GPa)
    1.0     206.5155539112042
  100.0     206.0443575016640
  200.0     204.3975651207386
  300.0     202.3997035927397
  400.0     200.1786619317130
  500.0     197.8903400129765
  600.0     195.5309257534690
  700.0     193.1407060154815
  800.0     190.7242414260118
  900.0     188.2925613839473
 1000.0     185.8497929184312
 1100.0     183.4003671568109
 1200.0     180.9470168177465
 1300.0     178.4921173405775
 1400.0     176.0380333411252
 1500.0     173.5862040962244
 1600.0     171.1387387567453
 1700.0     168.6971942064143
 1800.0     166.2631812336307
 1900.0     163.8387252541156
 2000.0     161.4253301981424
 2100.0     159.0248854522792
 2200.0     156.6395307354975
 2300.0     154.2714448146605
 2400.0     151.9232652661626
 2500.0     149.5962484355371
 2600.0     147.2933859531094
 2700.0     145.0211933523604
 2800.0     142.7740327902507
 2900.0     140.5680796123129
 3000.0     138.3959316793976
 3100.0     136.2638124527291
 3200.0     134.1873799120483
 3300.0     132.1479406668311
 3400.0     130.1917589980870
 3500.0     128.2693503009230
 3600.0     126.4434925243618
 3700.0     124.6890082194937
 3800.0     123.0085557036095
 3900.0     121.4798522930326
 4000.0     119.9731557392184
 4100.0     118.7135034454883
 4200.0     117.4725732349706
 4300.0     116.4779918350208
 4400.0     115.6265342917611
 4500.0     115.2261405593422
 4600.0     113.2809529060011
 4700.0     119.3328041812690
 4800.0      97.3858632867032
 4900.0     -88.7652232893396
 5000.0      27.5266152621091
 5100.0      44.3326176774854
 5200.0      46.8897095072427
 5300.0      45.8847116525978
 5400.0      47.5810881707758
 5500.0      44.7265168970675
 5600.0      46.5047095901322
 5700.0      43.7052178088975
 5800.0      46.8860158439587
 5900.0      42.5937056631036
 6000.0      41.9386315174868
# P = 8.000000 (GPa)
    1.0     210.5448255113848
  100.0     210.0700200909058
  200.0     208.4248309563966
  300.0     206.4251626676969
  400.0     204.2059150241964
  500.0     201.9180818272611
  600.0     199.5593511459167
  700.0     197.1689368706568
  800.0     194.7515741939016
  900.0     192.3180847650640
 1000.0     189.8725716833344
 1100.0     187.4193546198803
 1200.0     184.9610904179241
 1300.0     182.5000872539750
 1400.0     180.0385842096342
 1500.0     177.5779559701258
 1600.0     175.1201827580926
 1700.0     172.6666978566080
 1800.0     170.2190204627546
 1900.0     167.7789790726420
 2000.0     165.3479445964441
 2100.0     162.9276841273470
 2200.0     160.5200995838878
 2300.0     158.1271282299791
 2400.0     155.7512621100579
 2500.0     153.3935314344435
 2600.0     151.0565959455754
 2700.0     148.7464856670184
 2800.0     146.4577181035046
 2900.0     144.2053184368648
 3000.0     141.9821853082938
 3100.0     139.7938090022074
 3200.0     137.6547047807315
 3300.0     135.5468678832342
 3400.0     133.5135656918760
 3500.0     131.5076283821187
 3600.0     129.5875820897768
 3700.0     127.7291717141122
 3800.0     125.9337973249137
 3900.0     124.2738338015951
 4000.0     122.6261201565127
 4100.0     121.1999058854501
 4200.0     119.7802982332953
 4300.0     118.5768466496689
 4400.0     117.4892052249264
 4500.0     116.8414978681186
 4600.0     114.8992071040604
 4700.0     120.2269455891953
 4800.0     100.9436620462133
 4900.0    -143.5125446523944
 5000.0      28.9564613654370
 5100.0      50.7273272318095
 5200.0      53.3551299065385
 5300.0      52.2964221211813
 5400.0      53.9257254681199
 5500.0      51.0835658249248
 5600.0      52.5082678606527
 5700.0      49.8115276159972
 5800.0      52.7971723883864
 5900.0      48.5641955750778
 6000.0      47.8176712373635
# P = 9.000000 (GPa)
    1.0     214.5741178661852
  100.0     214.0962482754051
  200.0     212.4535421298744
  300.0     210.4529621510707
  400.0     208.2362124009589
  500.0     205.9496733698105
  600.0     203.5924469937781
  700.0     201.2027272622288
  800.0     198.7854247300500
  900.0     196.3511662736357
 1000.0     193.9040152931388
 1100.0     191.4481893662531
 1200.0     188.9862988875604
 1300.0     186.5205617070844
 1400.0     184.0531164719433
 1500.0     181.5852784875697
 1600.0     179.1189028141854
 1700.0     176.6553240054406
 1800.0     174.1959496583732
 1900.0     171.7424587413486
 2000.0     169.2961531727790
 2100.0     166.8585502364997
 2200.0     164.4314401172511
 2300.0     162.0166040284938
 2400.0     159.6162217354377
 2500.0     157.2312407171239
 2600.0     154.8640482001938
 2700.0     152.5201973564610
 2800.0     150.1943769695805
 2900.0     147.9005572059978
 3000.0     145.6319571850582
 3100.0     143.3934324665319
 3200.0     141.1984259484506
 3300.0     139.0296932543984
 3400.0     136.9277070623655
 3500.0     134.8476323829098
 3600.0     132.8439608835614
 3700.0     130.8935575736026
 3800.0     128.9968344964011
 3900.0     127.2212895962861
 4000.0     125.4500719871131
 4100.0     123.8784867205561
 4200.0     122.3038615589395
 4300.0     120.9201549188999
 4400.0     119.6311475890449
 4500.0     118.7370358093591
 4600.0     116.6359312414384
 4700.0     121.1930919671060
 4800.0     103.6740355380123
 4900.0    -208.6453925151628
 5000.0      30.9624719056603
 5100.0      57.1651513079737
 5200.0      59.8401010393591
 5300.0      58.7435619699532
 5400.0      60.3742024843766
 5500.0      57.5386598325149
 5600.0      58.7006823093085
 5700.0      56.0917591016607
 5800.0      58.9435776618373
 5900.0      54.7423190319135
 6000.0      53.9245495382437
# P = 10.000000 (GPa)
    1.0     218.6034170962409
  100.0     218.1230098062837
  200.0     216.4836226245314
  300.0     214.4830046914595
  400.0     212.2694287361209
  500.0     209.9849334943355
  600.0     207.6299965842636
  700.0     205.2418158534149
  800.0     202.8254963535777
  900.0     200.3914372704890
 1000.0     197.9436920124043
 1100.0     195.4863842705647
 1200.0     193.0220764157475
 1300.0     190.5528918373575
 1400.0     188.0808941788168
 1500.0     185.6073439052930
 1600.0     183.1339536316718
 1700.0     180.6620231477587
 1800.0     178.1927968498871
 1900.0     175.7278875876009
 2000.0     173.2684092667807
 2100.0     170.8158210039678
 2200.0     168.3717196126715
 2300.0     165.9376777801196
 2400.0     163.5157800208546
 2500.0     161.1067795274674
 2600.0     158.7127835373261
 2700.0     156.3389839314228
 2800.0     153.9802856165927
 2900.0     151.6496136307462
 3000.0     149.3405358681771
 3100.0     147.0573457373313
 3200.0     144.8125277797163
 3300.0     142.5895911544893
 3400.0     140.4263967066153
 3500.0     138.2804401667738
 3600.0     136.2024977509785
 3700.0     134.1705397776796
 3800.0     132.1841405830866
 3900.0     130.3065349030576
 4000.0     128.4268172251142
 4100.0     126.7276409727792
 4200.0     125.0178513092894
 4300.0     123.4776696326523
 4400.0     122.0144787088485
 4500.0     120.9113611720143
 4600.0     118.6626514137423
 4700.0     122.5477754614710
