# T (K)      C_P (J K^-1 mol^-1)
# P = 0.000000 (GPa)
    1.0       1.0000090058065
  100.0      15.9185801096219
  200.0      34.4683559624416
  300.0      40.1284704635314
  400.0      44.6254170531525
  500.0      46.5633252360834
  600.0      48.0460994006859
  700.0      49.0172366795264
  800.0      49.7998104879870
  900.0      50.4444066735955
 1000.0      51.0217390432637
 1100.0      51.5588634886208
 1200.0      52.0806036021603
 1300.0      52.6025216742494
 1400.0      53.1339840592362
 1500.0      53.6875850642160
 1600.0      54.2693299329743
 1700.0      54.8877056449707
 1800.0      55.5508791510403
 1900.0      56.2652228307697
 2000.0      57.0405571879681
 2100.0      57.8860883633082
 2200.0      58.8117142264094
 2300.0      59.8290901585965
 2400.0      60.9502312238013
 2500.0      62.1952079941287
 2600.0      63.5825292443757
 2700.0      65.1226527016730
 2800.0      66.8674093932953
 2900.0      68.8161553426957
 3000.0      71.0332237439331
 3100.0      73.5659560186886
 3200.0      76.4484425770779
 3300.0      79.8007188519830
 3400.0      83.6026680092034
 3500.0      88.0169105628260
 3600.0      93.0211501811472
 3700.0      98.6853679499750
 3800.0     105.1394096242188
 3900.0     112.2108374471884
 4000.0     120.2156743897869
 4100.0     128.7138535371634
 4200.0     138.2115151841290
 4300.0     147.9760282128329
 4400.0     158.1969193958867
 4500.0     167.0635375895000
 4600.0     184.8584102432692
 4700.0     163.9899945384709
 4800.0     316.4400727870005
 4900.0    -376.2571899898915
 5000.0   -1217.2788731686003
 5100.0     226.7770174103384
 5200.0      58.4900623309486
 5300.0     110.0671915840849
 5400.0       9.2927647771350
 5500.0     140.5803432631088
 5600.0      -3.9307911660895
 5700.0     169.0988827458023
 5800.0     -26.1931481419390
 5900.0     178.6630646384337
 6000.0     410.4350591380653
# P = 1.000000 (GPa)
    1.0       1.0000078884546
  100.0      15.8853660955371
  200.0      34.4266498386837
  300.0      40.0853682195943
  400.0      44.5744293186241
  500.0      46.5015278520644
  600.0      47.9706087718480
  700.0      48.9258862362306
  800.0      49.6904115391089
  900.0      50.3147817517962
 1000.0      50.8694962216825
 1100.0      51.3814321095724
 1200.0      51.8750983592483
 1300.0      52.3657089775981
 1400.0      52.8622568404481
 1500.0      53.3768307122588
 1600.0      53.9149026383480
 1700.0      54.4843066702974
 1800.0      55.0924275178286
 1900.0      55.7447544639287
 2000.0      56.4500238236386
 2100.0      57.2161579395952
 2200.0      58.0515286610315
 2300.0      58.9659576109532
 2400.0      59.9692699100537
 2500.0      61.0787910352342
 2600.0      62.3096354504694
 2700.0      63.6683862828566
 2800.0      65.2013949289072
 2900.0      66.9019672424444
 3000.0      68.8260985986594
 3100.0      71.0105168018192
 3200.0      73.4754091396565
 3300.0      76.3292214356334
 3400.0      79.5634373446962
 3500.0      83.3542755722263
 3600.0      87.6788751265221
 3700.0      92.6407544025916
 3800.0      98.3446729838311
 3900.0     104.6963724621674
 4000.0     111.9927723923627
 4100.0     119.8938484494607
 4200.0     128.8296945060726
 4300.0     138.3108150864634
 4400.0     148.5119295338988
 4500.0     157.9671621960077
 4600.0     174.2081148108166
 4700.0     162.3907720491033
 4800.0     275.4125377177552
 4900.0    -208.4717101447397
 5000.0    -809.2360576461940
 5100.0     173.3596334529788
 5200.0      58.8429740628240
 5300.0      94.8088250774468
 5400.0      23.7102315156349
 5500.0     115.9813734901843
 5600.0      14.8657209913867
 5700.0     137.5291351550938
 5800.0      -2.4473008780447
 5900.0     145.7301260847236
 6000.0     316.6958693152672
# P = 2.000000 (GPa)
    1.0       1.0000068930782
  100.0      15.8531354800631
  200.0      34.3864693104327
  300.0      40.0443552496255
  400.0      44.5263430408568
  500.0      46.4436213623612
  600.0      47.9001704891493
  700.0      48.8409236689002
  800.0      49.5889321068499
  900.0      50.1948199872519
 1000.0      50.7289036481050
 1100.0      51.2179343992881
 1200.0      51.6861381467707
 1300.0      52.1484315837681
 1400.0      52.6134989706275
 1500.0      53.0929812021476
 1600.0      53.5919004626912
 1700.0      54.1175449370166
 1800.0      54.6766481235744
 1900.0      55.2739648894401
 2000.0      55.9173276285333
 2100.0      56.6136076991338
 2200.0      57.3699277560459
 2300.0      58.1946196281140
 2400.0      59.0957492150650
 2500.0      60.0884452053254
 2600.0      61.1851363198441
 2700.0      62.3893565198444
 2800.0      63.7432090758411
 2900.0      65.2353584083324
 3000.0      66.9155049707499
 3100.0      68.8122304368616
 3200.0      70.9362208197264
 3300.0      73.3819509481318
 3400.0      76.1250992968639
 3500.0      79.3357743941928
 3600.0      83.0079024692514
 3700.0      87.2649515384790
 3800.0      92.2045523320459
 3900.0      97.7724038519846
 4000.0     104.2615319748047
 4100.0     111.4015040246003
 4200.0     119.5924716248840
 4300.0     128.5025711534834
 4400.0     138.3253414091911
 4500.0     147.8979965791595
 4600.0     162.9303695822503
 4700.0     157.2758162440476
 4800.0     243.7173281158953
 4900.0     -97.8143505202987
 5000.0    -532.3690950374707
 5100.0     137.4112172322998
 5200.0      59.6817397425438
 5300.0      84.7710108691806
 5400.0      34.3848483426176
 5500.0      99.1226275690661
 5600.0      28.7876287149288
 5700.0     115.3350238901785
 5800.0      15.2592248958531
 5900.0     122.2032198592735
 6000.0     248.3460413656842
# P = 3.000000 (GPa)
    1.0       1.0000060071748
  100.0      15.8222167407826
  200.0      34.3481596813945
  300.0      40.0056015388952
  400.0      44.4811715958568
  500.0      46.3894582454067
  600.0      47.8344852462259
  700.0      48.7618945097498
  800.0      49.4947429029194
  900.0      50.0836998077158
 1000.0      50.5989261070090
 1100.0      51.0670643758869
 1200.0      51.5121070145899
 1300.0      51.9487177371595
 1400.0      52.3853141966387
 1500.0      52.8331530816494
 1600.0      53.2968829650049
 1700.0      53.7833180659534
 1800.0      54.2986350850846
 1900.0      54.8469888468692
 2000.0      55.4354528158361
 2100.0      56.0700309765959
 2200.0      56.7568164104783
 2300.0      57.5029214982002
 2400.0      58.3149952417138
 2500.0      59.2063763833232
 2600.0      60.1873544269703
 2700.0      61.2590883161159
 2800.0      62.4602589671938
 2900.0      63.7760079388028
 3000.0      65.2511744260066
 3100.0      66.9081103073562
 3200.0      68.7504654389209
 3300.0      70.8622310562779
 3400.0      73.2081769471777
 3500.0      75.9398023527338
 3600.0      79.0340409702202
 3700.0      82.6207384354423
 3800.0      86.8152291790175
 3900.0      91.5860583357557
 4000.0      97.2240244966120
 4100.0     103.5049300175121
 4200.0     110.8198694367683
 4300.0     118.9362515362947
 4400.0     128.0765894778158
 4500.0     137.3310918611583
 4600.0     151.2133837008407
 4700.0     149.4883241336340
 4800.0     217.8795261217501
 4900.0     -27.7116160294504
 5000.0    -347.4686951148578
 5100.0     113.7672557782550
 5200.0      60.8364627711784
 5300.0      78.4508839132005
 5400.0      42.3409344369690
 5500.0      87.8939607556216
 5600.0      39.1328913061579
 5700.0     100.0745320605640
 5800.0      28.4730324812595
 5900.0     105.7335177366594
 6000.0     199.1335697714121
# P = 4.000000 (GPa)
    1.0       1.0000052194954
  100.0      15.7924990318866
  200.0      34.3116108377191
  300.0      39.9690195204296
  400.0      44.4388133304005
  500.0      46.3388677316098
  600.0      47.7732737447328
  700.0      48.6883832328143
  800.0      49.4072781233783
  900.0      49.9806891687669
 1000.0      50.4786326345299
 1100.0      50.9276776741238
 1200.0      51.3516047969456
 1300.0      51.7648521750920
 1400.0      52.1756352821827
 1500.0      52.5948639422578
 1600.0      53.0268661464944
 1700.0      53.4780657075418
 1800.0      53.9541632554205
 1900.0      54.4588016121753
 2000.0      54.9984162920829
 2100.0      55.5782883683750
 2200.0      56.2036651913340
 2300.0      56.8806596317118
 2400.0      57.6147581064364
 2500.0      58.4178394872440
 2600.0      59.2984668039967
 2700.0      60.2559296533479
 2800.0      61.3261518247922
 2900.0      62.4915581600299
 3000.0      63.7931636755751
 3100.0      65.2485485971200
 3200.0      66.8560237134795
 3300.0      68.6916939713943
 3400.0      70.7122076816174
 3500.0      73.0558825796086
 3600.0      75.6855003921428
 3700.0      78.7089110446983
 3800.0      82.2253603416465
 3900.0      86.2265477428029
 4000.0      91.0182793545007
 4100.0      96.4045760000594
 4200.0     102.7737979555632
 4300.0     109.9527225834800
 4400.0     118.1894647230815
 4500.0     126.7740030054779
 4600.0     139.4366557959169
 4700.0     139.9517630020745
 4800.0     195.8680734589173
 4900.0      14.1533989235726
 5000.0    -226.1834835061027
 5100.0      98.6133850155462
 5200.0      62.1338595841543
 5300.0      74.6895566109497
 5400.0      48.2988854184956
 5500.0      80.6682176976708
 5600.0      46.8453899141509
 5700.0      89.8519101654115
 5800.0      38.3456169296273
 5900.0      94.4765176414181
 6000.0     164.1733132635458
# P = 5.000000 (GPa)
    1.0       1.0000045200205
  100.0      15.7638210012234
  200.0      34.2766122179021
  300.0      39.9343884751953
  400.0      44.3990174016582
  500.0      46.2915659177659
  600.0      47.7162067418077
  700.0      48.6199858178959
  800.0      49.3260233598232
  900.0      49.8851270030833
 1000.0      50.3671987319662
 1100.0      50.7987542117820
 1200.0      51.2033816077856
 1300.0      51.5953399741849
 1400.0      51.9826569775851
 1500.0      52.3759439312957
 1600.0      52.7792745332424
 1700.0      53.1987191408748
 1800.0      53.6395731540461
 1900.0      54.1050657816099
 2000.0      54.6010813595059
 2100.0      55.1322907348370
 2200.0      55.7032361121258
 2300.0      56.3192084077837
 2400.0      56.9847459002634
 2500.0      57.7105159833084
 2600.0      58.5036795020507
 2700.0      59.3620615106030
 2800.0      60.3192998797637
 2900.0      61.3557627486723
 3000.0      62.5094010640174
 3100.0      63.7940515213399
 3200.0      65.2040162462907
 3300.0      66.8092868958980
 3400.0      68.5604975768190
 3500.0      70.5862039629853
 3600.0      72.8385570414469
 3700.0      75.4108204575102
 3800.0      78.3815680670064
 3900.0      81.7201358606477
 4000.0      85.7213282690537
 4100.0      90.2287500592063
 4200.0      95.6416734380093
 4300.0     101.8176124396789
 4400.0     109.0209567025157
 4500.0     116.6899065397179
 4600.0     128.0387828647153
 4700.0     129.5591547066404
 4800.0     176.6136025336642
 4900.0      36.8620614130078
 5000.0    -148.2717675036235
 5100.0      89.1651956667717
 5200.0      63.4107844218342
 5300.0      72.6026657704038
 5400.0      52.7527747187268
 5500.0      76.2000702286993
 5600.0      52.5963261953779
 5700.0      83.2043952531924
 5800.0      45.7189649939215
 5900.0      86.9912872636257
 6000.0     139.6793284864920
# P = 6.000000 (GPa)
    1.0       1.0000038996699
  100.0      15.7360402912259
  200.0      34.2429772706159
  300.0      39.9015098072736
  400.0      44.3615453836339
  500.0      46.2472607016480
  600.0      47.6629239032922
  700.0      48.5562684906732
  800.0      49.2504627736984
  900.0      49.7963982045213
 1000.0      50.2638789659327
 1100.0      50.6793804012160
 1200.0      51.0663376654265
 1300.0      51.4388469088183
 1400.0      51.8047842729157
 1500.0      52.1745052885297
 1600.0      52.5518472957791
 1700.0      52.9425991036107
 1800.0      53.3517088905361
 1900.0      53.7820408984652
 2000.0      54.2390163116374
 2100.0      54.7268023779792
 2200.0      55.2493453649034
 2300.0      55.8112415374617
 2400.0      56.4162582438768
 2500.0      57.0740512457646
 2600.0      57.7906357640126
 2700.0      58.5626867302910
 2800.0      59.4219143025188
 2900.0      60.3471491173172
 3000.0      61.3738329210610
 3100.0      62.5128725165837
 3200.0      63.7554836919976
 3300.0      65.1668741292016
 3400.0      66.6932361262351
 3500.0      68.4556121355587
 3600.0      70.3983724962841
 3700.0      72.6041199932493
 3800.0      75.1363891468127
 3900.0      77.9494062013949
 4000.0      81.3077859825687
 4100.0      85.0354911935251
 4200.0      89.5351087364750
 4300.0      94.7093618978810
 4400.0     100.8348024905982
 4500.0     107.4507314251505
 4600.0     117.4258292050383
 4700.0     119.0929777673280
 4800.0     159.6358654755606
 4900.0      47.0378424466004
 5000.0     -99.4665041734451
 5100.0      83.4237084804450
 5200.0      64.5296740792028
 5300.0      71.5298867880157
 5400.0      56.0375888291251
 5500.0      73.5495674627294
 5600.0      56.8554570067451
 5700.0      79.0147856055159
 5800.0      51.1999853749310
 5900.0      82.1616576899070
 6000.0     122.7462056202976
# P = 7.000000 (GPa)
    1.0       1.0000033505260
  100.0      15.7090312680003
  200.0      34.2105406357466
  300.0      39.8702057930485
  400.0      44.3261837245955
  500.0      46.2056898082932
  600.0      47.6130995210321
  700.0      48.4968291771647
  800.0      49.1801047380599
  900.0      49.7139110159581
 1000.0      50.1679675283271
 1100.0      50.5687255547891
 1200.0      50.9394815422013
 1300.0      51.2941900796949
 1400.0      51.6406133615733
 1500.0      51.9888667088601
 1600.0      52.3426077640110
 1700.0      52.7073735205998
 1800.0      53.0878001555661
 1900.0      53.4864720309048
 2000.0      53.9084023485572
 2100.0      54.3573156331065
 2200.0      54.8366724630170
 2300.0      55.3504952553466
 2400.0      55.9019001098888
 2500.0      56.4996899421906
 2600.0      57.1489391152736
 2700.0      57.8454325054372
 2800.0      58.6192167437845
 2900.0      59.4480006692926
 3000.0      60.3651349051130
 3100.0      61.3791904484819
 3200.0      62.4790652443074
 3300.0      63.7260688847354
 3400.0      65.0631626192522
 3500.0      66.6054868756457
 3600.0      68.2916583955167
 3700.0      70.1963189895700
 3800.0      72.3719766860914
 3900.0      74.7619070303959
 4000.0      77.6099219539866
 4100.0      80.7227524066187
 4200.0      84.4644472278885
 4300.0      88.7226068359151
 4400.0      93.7955287321358
 4500.0      99.3167903557362
 4600.0     107.9170044719906
 4700.0     109.1770990071111
 4800.0     144.7710263373380
 4900.0      49.4382377889033
 5000.0     -69.8410272112492
 5100.0      79.9886399906071
 5200.0      65.3920945626721
 5300.0      70.9970438942945
 5400.0      58.3849888935272
 5500.0      72.0238957613733
 5600.0      59.9514915244108
 5700.0      76.4439642607208
 5800.0      55.2237732518265
 5900.0      79.1347137205294
 6000.0     111.1711879903931
# P = 8.000000 (GPa)
    1.0       1.0000028653473
  100.0      15.6826831714990
  200.0      34.1791555768463
  300.0      39.8403176711995
  400.0      44.2927406389457
  500.0      46.1666170254165
  600.0      47.5664407996550
  700.0      48.4413064307194
  800.0      49.1145075168609
  900.0      49.6371292534284
 1000.0      50.0788210283405
 1100.0      50.4660215663001
 1200.0      50.8219037362212
 1300.0      51.1603053471096
 1400.0      51.4888832632024
 1500.0      51.8175504586438
 1600.0      52.1498111173017
 1700.0      52.4909774867604
 1800.0      52.8454409586858
 1900.0      53.2155244077565
 2000.0      53.6058945579293
 2100.0      54.0199252569310
 2200.0      54.4606409789684
 2300.0      54.9315789232270
 2400.0      55.4353372325103
 2500.0      55.9799788396623
 2600.0      56.5697945384309
 2700.0      57.1998865873872
 2800.0      57.8988421919436
 2900.0      58.6435904855266
 3000.0      59.4656940762884
 3100.0      60.3718577127702
 3200.0      61.3492368572131
 3300.0      62.4559085347550
 3400.0      63.6325495213356
 3500.0      64.9894444583643
 3600.0      66.4610929227376
 3700.0      68.1160000571835
 3800.0      69.9984020286454
 3900.0      72.0437487899773
 4000.0      74.4806249455794
 4100.0      77.1033462588071
 4200.0      80.2507102970075
 4300.0      83.7851253742086
 4400.0      87.9594424787826
 4500.0      92.4389545169145
 4600.0      99.7218800407685
 4700.0     100.2588739539253
 4800.0     131.9865454489457
 4900.0      47.4079138662584
 5000.0     -52.5775585275707
 5100.0      77.9145549904235
 5200.0      65.9475890576895
 5300.0      70.6856458843113
 5400.0      59.9668705873359
 5500.0      71.1317845495175
 5600.0      62.1211153050731
 5700.0      74.8781564652970
 5800.0      58.1057056250173
 5900.0      77.2723948067121
 6000.0     103.3097649437480
# P = 9.000000 (GPa)
    1.0       1.0000024375989
  100.0      15.6569248278297
  200.0      34.1487108980141
  300.0      39.8117091763880
  400.0      44.2610449645098
  500.0      46.1298295248650
  600.0      47.5226834596974
  700.0      48.3893744943651
  800.0      49.0532734657419
  900.0      49.5655717525396
 1000.0      49.9958618437706
 1100.0      50.3705779918090
 1200.0      50.7127880371196
 1300.0      51.0362263824517
 1400.0      51.3484621411961
 1500.0      51.6592334423943
 1600.0      51.9719025272249
 1700.0      52.2916053998537
 1800.0      52.6225022342565
 1900.0      52.9667078360904
 2000.0      53.3286017152893
 2100.0      53.7112250407970
 2200.0      54.1172642167728
 2300.0      54.5498502667059
 2400.0      55.0111227079987
 2500.0      55.5085253682655
 2600.0      56.0457031926730
 2700.0      56.6172312779196
 2800.0      57.2503784664342
 2900.0      57.9215854237455
 3000.0      58.6608587259250
 3100.0      59.4733933691366
 3200.0      60.3450624278579
 3300.0      61.3311861649155
 3400.0      62.3709115860963
 3500.0      63.5704262624676
 3600.0      64.8612705533720
 3700.0      66.3071854252401
 3800.0      67.9460932983281
 3900.0      69.7078350169002
 4000.0      71.8094136658360
 4100.0      74.0365974598928
 4200.0      76.7099000655310
 4300.0      79.6741257257371
 4400.0      83.1514950955631
 4500.0      86.7954009972133
 4600.0      92.9360529050148
 4700.0      92.6173168007662
 4800.0     121.2690378595038
 4900.0      43.2297307462155
 5000.0     -43.0540045066129
 5100.0      76.5983002361981
 5200.0      66.1963725929457
 5300.0      70.4061588165700
 5400.0      60.9266887962040
 5500.0      70.5461721286203
 5600.0      63.5465171834865
 5700.0      73.8865911442324
 5800.0      60.0825545411536
 5900.0      76.1126318829839
 6000.0      97.9584024923440
# P = 10.000000 (GPa)
    1.0       1.0000020615484
  100.0      15.6317419272094
  200.0      34.1191597925748
  300.0      39.7842914617866
  400.0      44.2309611277292
  500.0      46.0951430165409
  600.0      47.4815907305154
  700.0      48.3407397218637
  800.0      48.9960440591547
  900.0      49.4988052864894
 1000.0      49.9185701210037
 1100.0      50.2817772527747
 1200.0      50.6114023965494
 1300.0      50.9210895590224
 1400.0      51.2183390413676
 1500.0      51.5127270650452
 1600.0      51.8075031204560
 1700.0      52.1076435172579
 1800.0      52.4171084757071
 1900.0      52.7378475253409
 2000.0      53.0739651678175
 2100.0      53.4282547604316
 2200.0      53.8030953469083
 2300.0      54.2012604960925
 2400.0      54.6245467157825
 2500.0      55.0798411235222
 2600.0      55.5702316570481
 2700.0      56.0899235110737
 2800.0      56.6649915618746
 2900.0      57.2715944356698
 3000.0      57.9383518540826
 3100.0      58.6692420264520
 3200.0      59.4492277287928
 3300.0      60.3312055727086
 3400.0      61.2534091269849
 3500.0      62.3184351705048
 3600.0      63.4558372180599
 3700.0      64.7254998404314
 3800.0      66.1604190702889
 3900.0      67.6866045318839
 4000.0      69.5117808631701
 4100.0      71.4160889701242
 4200.0      73.7062126035266
 4300.0      76.2147792688519
 4400.0      79.1419246618272
 4500.0      82.1356587191510
 4600.0      87.4001883324606
