# T (K)      C_V_P (J K^-1 mol^-1)
# P = 0.000000 (GPa)
    1.0       1.0000000000000
  100.0      15.9055122100900
  200.0      34.3587688761987
  300.0      39.8279816765976
  400.0      44.0959981348018
  500.0      45.7866524786218
  600.0      47.0091875961988
  700.0      47.7058645705347
  800.0      48.1977181958467
  900.0      48.5328114036495
 1000.0      48.7792544392754
 1100.0      48.9613644824360
 1200.0      49.1010820274038
 1300.0      49.2107996398245
 1400.0      49.2964459849009
 1500.0      49.3667872025282
 1600.0      49.4235104752290
 1700.0      49.4702766060044
 1800.0      49.5097252652001
 1900.0      49.5419555299846
 2000.0      49.5695968366440
 2100.0      49.5934916969110
 2200.0      49.6138600820456
 2300.0      49.6311097919138
 2400.0      49.6442114366856
 2500.0      49.6577085940294
 2600.0      49.6712955451045
 2700.0      49.6740894204034
 2800.0      49.6909396396091
 2900.0      49.6893411728422
 3000.0      49.6955953446336
 3100.0      49.7071680783503
 3200.0      49.6986612200651
 3300.0      49.7206035459133
 3400.0      49.6920516368020
 3500.0      49.7178913025930
 3600.0      49.7002954634778
 3700.0      49.6917507777440
 3800.0      49.7130656368820
 3900.0      49.6319269678077
 4000.0      49.7117895182128
 4100.0      49.5574731003180
 4200.0      49.6302485256901
 4300.0      49.5164838240509
 4400.0      49.5324276792891
 4500.0      48.4212202530903
 4600.0      53.8056487115914
 4700.0      26.3666522184355
 4800.0     159.0638916731250
 4900.0    -505.6946789932912
 5000.0   -1245.2141443666969
 5100.0     224.7546884177164
 5200.0      55.3151444738814
 5300.0     106.5675289061037
 5400.0       5.8970293767370
 5500.0     137.3715756733482
 5600.0      -7.3168819475550
 5700.0     165.5672540525902
 5800.0     -29.3849587733503
 5900.0     175.5525795813692
 6000.0     403.2119713526172
# P = 1.000000 (GPa)
    1.0       1.0000000000000
  100.0      15.8737109972693
  200.0      34.3268005562753
  300.0      39.8075900442015
  400.0      44.0819482998171
  500.0      45.7769812240163
  600.0      47.0021141784156
  700.0      47.7005957466381
  800.0      48.1936881994186
  900.0      48.5297140270713
 1000.0      48.7768409327620
 1100.0      48.9595039299625
 1200.0      49.0996454801608
 1300.0      49.2096871610941
 1400.0      49.2956102531638
 1500.0      49.3661602790335
 1600.0      49.4230590740949
 1700.0      49.4699719093689
 1800.0      49.5095349465116
 1900.0      49.5418708380960
 2000.0      49.5695960717529
 2100.0      49.5935599103165
 2200.0      49.6139890394309
 2300.0      49.6312970821067
 2400.0      49.6444730395930
 2500.0      49.6580284483060
 2600.0      49.6716642498714
 2700.0      49.6746194927539
 2800.0      49.6915018414061
 2900.0      49.6901761168813
 3000.0      49.6966814166169
 3100.0      49.7084473726770
 3200.0      49.7006719567725
 3300.0      49.7227887527022
 3400.0      49.6960641546189
 3500.0      49.7222416156739
 3600.0      49.7071513001257
 3700.0      49.7015924209322
 3800.0      49.7238883044021
 3900.0      49.6550234022270
 4000.0      49.7299205084656
 4100.0      49.6044286902006
 4200.0      49.6723083999846
 4300.0      49.5903403609870
 4400.0      49.6113596716139
 4500.0      48.7937317362181
 4600.0      52.7285446398965
 4700.0      33.1922545681457
 4800.0     126.0583268501164
 4900.0    -332.7237392147816
 5000.0    -838.2715714332512
 5100.0     170.2383064316223
 5200.0      54.3858561356401
 5300.0      90.0184821174839
 5400.0      19.0809123911304
 5500.0     111.5498261229736
 5600.0      10.2930772776617
 5700.0     132.8115303206368
 5800.0      -6.8167452365856
 5900.0     141.4542736591256
 6000.0     308.1038025474263
# P = 2.000000 (GPa)
    1.0       1.0000000000000
  100.0      15.8427608120915
  200.0      34.2955379591203
  300.0      39.7875252205271
  400.0      44.0680243256682
  500.0      45.7673159743312
  600.0      46.9949771236393
  700.0      47.6952202420250
  800.0      48.1895232602021
  900.0      48.5264637613665
 1000.0      48.7742620373122
 1100.0      48.9574774814220
 1200.0      49.0980572779166
 1300.0      49.2084466113917
 1400.0      49.2946727065731
 1500.0      49.3654525660271
 1600.0      49.4225457122796
 1700.0      49.4696219026559
 1800.0      49.5093128525611
 1900.0      49.5417671263073
 2000.0      49.5695860835819
 2100.0      49.5936258937172
 2200.0      49.6141199372901
 2300.0      49.6314871626530
 2400.0      49.6447342820726
 2500.0      49.6583378018322
 2600.0      49.6720061669108
 2700.0      49.6750886469029
 2800.0      49.6919741181058
 2900.0      49.6908420613124
 3000.0      49.6975076082247
 3100.0      49.7093832627424
 3200.0      49.7020930013250
 3300.0      49.7242994342067
 3400.0      49.6987775008846
 3500.0      49.7251531341973
 3600.0      49.7116948273038
 3700.0      49.7080800107571
 3800.0      49.7310138912235
 3900.0      49.6701807003108
 4000.0      49.7418546095883
 4100.0      49.6352942229152
 4200.0      49.7000444260792
 4300.0      49.6391270846289
 4400.0      49.6636734766722
 4500.0      49.0409669660864
 4600.0      52.0117677241232
 4700.0      37.7527225883933
 4800.0     103.9216602794302
 4900.0    -216.2446015421303
 5000.0    -562.5387863960234
 5100.0     132.9692300677457
 5200.0      53.7460088777325
 5300.0      78.5013735465850
 5400.0      28.3378624559282
 5500.0      93.2775276525231
 5600.0      22.8568591780027
 5700.0     109.2647862709587
 5800.0       9.5304713193432
 5900.0     116.5805405929395
 6000.0     238.2417920629241
# P = 3.000000 (GPa)
    1.0       1.0000000000000
  100.0      15.8130020883207
  200.0      34.2653988216888
  300.0      39.7681099447383
  400.0      44.0544791486902
  500.0      45.7578476679930
  600.0      46.9879301412051
  700.0      47.6898651693473
  800.0      48.1853323307679
  900.0      48.5231553736379
 1000.0      48.7716019764457
 1100.0      48.9553542413128
 1200.0      49.0963618515836
 1300.0      49.2070953766087
 1400.0      49.2936344155539
 1500.0      49.3646608058028
 1600.0      49.4219669650931
 1700.0      49.4692235037738
 1800.0      49.5090564131599
 1900.0      49.5416428293821
 2000.0      49.5695666605575
 2100.0      49.5936912644152
 2200.0      49.6142569206084
 2300.0      49.6316877285396
 2400.0      49.6450086308939
 2500.0      49.6586564992049
 2600.0      49.6723479911311
 2700.0      49.6755415540816
 2800.0      49.6924081869940
 2900.0      49.6914233601705
 3000.0      49.6981897961972
 3100.0      49.7101163089525
 3200.0      49.7031527068273
 3300.0      49.7253848863836
 3400.0      49.7006598743699
 3500.0      49.7271313536090
 3600.0      49.7147248348560
 3700.0      49.7123556277081
 3800.0      49.7356844725153
 3900.0      49.6800449436049
 4000.0      49.7496329429966
 4100.0      49.6553377805526
 4200.0      49.7181013719087
 4300.0      49.6709128189135
 4400.0      49.6978604224781
 4500.0      49.2026300074391
 4600.0      51.5420155563992
 4700.0      40.7536264711518
 4800.0      89.2998181234647
 4900.0    -138.9934874187241
 5000.0    -378.4834846978947
 5100.0     107.8548801219481
 5200.0      53.3116903270891
 5300.0      70.5914053667586
 5400.0      34.7563531927062
 5500.0      80.5035555721304
 5600.0      31.7170723568620
 5700.0      92.5257413652562
 5800.0      21.2459681089611
 5900.0      98.6210753132245
 6000.0     187.4272769453182
# P = 4.000000 (GPa)
    1.0       1.0000000000000
  100.0      15.7843347640528
  200.0      34.2363381285131
  300.0      39.7493939014772
  400.0      44.0414264768244
  500.0      45.7487094217887
  600.0      46.9810977256568
  700.0      47.6846364080014
  800.0      48.1812060905788
  900.0      48.5198676464858
 1000.0      48.7689309582347
 1100.0      48.9531967456495
 1200.0      49.0946152711725
 1300.0      49.2056807927908
 1400.0      49.2925261555599
 1500.0      49.3637974455173
 1600.0      49.4213240436247
 1700.0      49.4687750486294
 1800.0      49.5087640307970
 1900.0      49.5414969916842
 2000.0      49.5695377620895
 2100.0      49.5937572582865
 2200.0      49.6144030212114
 2300.0      49.6319043578005
 2400.0      49.6453058167111
 2500.0      49.6589988758587
 2600.0      49.6727090017181
 2700.0      49.6760103947705
 2800.0      49.6928412459272
 2900.0      49.6919804272131
 3000.0      49.6988105807101
 3100.0      49.7107461350844
 3200.0      49.7040116632081
 3300.0      49.7262189787961
 3400.0      49.7020350069962
 3500.0      49.7285247941687
 3600.0      49.7167923956578
 3700.0      49.7152080135124
 3800.0      49.7387591068394
 3900.0      49.6864484103102
 4000.0      49.7546732781124
 4100.0      49.6682267852657
 4200.0      49.7297244464182
 4300.0      49.6913539125556
 4400.0      49.7198962495061
 4500.0      49.3067577047973
 4600.0      51.2389701406834
 4700.0      42.6972845154767
 4800.0      79.7945820460170
 4900.0     -88.5715493357134
 5000.0    -257.5411616318684
 5100.0      91.1856207611372
 5200.0      53.0213159684540
 5300.0      65.2339826284151
 5400.0      39.1482431710185
 5500.0      71.6870705973085
 5600.0      37.8895284726020
 5700.0      80.7653272396808
 5800.0      29.5482951995014
 5900.0      85.7933672477336
 6000.0     150.8485994811849
# P = 5.000000 (GPa)
    1.0       1.0000000000000
  100.0      15.7566071852256
  200.0      34.2082040621225
  300.0      39.7312800471868
  400.0      44.0288094241353
  500.0      45.7398899490859
  600.0      46.9745136177777
  700.0      47.6795967105538
  800.0      48.1772149020131
  900.0      48.5166656849471
 1000.0      48.7663071465276
 1100.0      48.9510567472533
 1200.0      49.0928639804657
 1300.0      49.2042448591459
 1400.0      49.2913848593143
 1500.0      49.3628932319468
 1600.0      49.4206367872373
 1700.0      49.4682841981060
 1800.0      49.5084366225292
 1900.0      49.5413292091528
 2000.0      49.5694994727544
 2100.0      49.5938248133599
 2200.0      49.6145604174793
 2300.0      49.6321410194812
 2400.0      49.6456327519683
 2500.0      49.6593751406928
 2600.0      49.6731029638218
 2700.0      49.6765181388716
 2800.0      49.6932998751535
 2900.0      49.6925563399541
 3000.0      49.6994287134960
 3100.0      49.7113433577350
 3200.0      49.7047830580645
 3300.0      49.7269235177464
 3400.0      49.7031276858596
 3500.0      49.7295733160579
 3600.0      49.7182739911573
 3700.0      49.7171751389763
 3800.0      49.7408247858657
 3900.0      49.6906436916558
 4000.0      49.7579470919708
 4100.0      49.6764778024037
 4200.0      49.7371479076370
 4300.0      49.7043566373965
 4400.0      49.7339236838978
 4500.0      49.3728504041228
 4600.0      51.0465522304038
 4700.0      43.9359748982312
 4800.0      73.7165736980504
 4900.0     -56.2044044581541
 5000.0    -179.3668953839085
 5100.0      80.2960441329216
 5200.0      52.8302808791835
 5300.0      61.6581767010780
 5400.0      42.1119513685430
 5500.0      65.6835767915707
 5600.0      42.1345593061009
 5700.0      72.6045725571155
 5800.0      35.3626475924693
 5900.0      76.7349368223900
 6000.0     124.8040089535812
# P = 6.000000 (GPa)
    1.0       1.0000000000000
  100.0      15.7296857774924
  200.0      34.1808631631879
  300.0      39.7136810347234
  400.0      44.0165646882489
  500.0      45.7313429039788
  600.0      46.9681438999240
  700.0      47.6747300554864
  800.0      48.1733679201559
  900.0      48.5135811592079
 1000.0      48.7637731018420
 1100.0      48.9489764606006
 1200.0      49.0911462809219
 1300.0      49.2028221772557
 1400.0      49.2902409549194
 1500.0      49.3619750102886
 1600.0      49.4199280030692
 1700.0      49.4677683057105
 1800.0      49.5080842447246
 1900.0      49.5411422663759
 2000.0      49.5694519808034
 2100.0      49.5938945346663
 2200.0      49.6147306319442
 2300.0      49.6324004565367
 2400.0      49.6459942165807
 2500.0      49.6597923997886
 2600.0      49.6735395232242
 2700.0      49.6770809268612
 2800.0      49.6938028399910
 2900.0      49.6931815256671
 3000.0      49.7000857037546
 3100.0      49.7119578292173
 3200.0      49.7055465291513
 3300.0      49.7275839050161
 3400.0      49.7040944770945
 3500.0      49.7304428477199
 3600.0      49.7194276240252
 3700.0      49.7186221493739
 3800.0      49.7422778704280
 3900.0      49.6934759522410
 4000.0      49.7601115564808
 4100.0      49.6817937671462
 4200.0      49.7418875065747
 4300.0      49.7125775983144
 4400.0      49.7427702562879
 4500.0      49.4142569866391
 4600.0      50.9262290679690
 4700.0      44.7128407438619
 4800.0      69.8944832522323
 4900.0     -35.7796010215645
 5000.0    -129.6908429260110
 5100.0      73.2988675384432
 5200.0      52.7067306371268
 5300.0      59.3078426692297
 5400.0      44.0830566001478
 5500.0      61.6531234548395
 5600.0      45.0148048878642
 5700.0      67.0151127252038
 5800.0      39.3842343269949
 5900.0      70.4146295240004
 6000.0     106.4724571908566
# P = 7.000000 (GPa)
    1.0       1.0000000000000
  100.0      15.7034528050296
  200.0      34.1541980440872
  300.0      39.6965201915273
  400.0      44.0046368061743
  500.0      45.7230277510766
  600.0      46.9619567391907
  700.0      47.6700107875799
  800.0      48.1696441445457
  900.0      48.5106007824548
 1000.0      48.7613292078361
 1100.0      48.9469720487816
 1200.0      49.0894881043509
 1300.0      49.2014404248486
 1400.0      49.2891194245796
 1500.0      49.3610648064157
 1600.0      49.4192164006015
 1700.0      49.4672423307665
 1800.0      49.5077180358493
 1900.0      49.5409419098132
 2000.0      49.5693955955137
 2100.0      49.5939641570810
 2200.0      49.6149127998364
 2300.0      49.6326841072844
 2400.0      49.6463933739175
 2500.0      49.6602554203928
 2600.0      49.6740252382022
 2700.0      49.6777098147892
 2800.0      49.6943631245416
 2900.0      49.6938771256464
 3000.0      49.7008105052134
 3100.0      49.7126244133887
 3200.0      49.7063577390082
 3300.0      49.7282597993322
 3400.0      49.7050442983421
 3500.0      49.7312483527090
 3600.0      49.7204308357061
 3700.0      49.7197982379015
 3800.0      49.7433862872722
 3900.0      49.6955108618796
 4000.0      49.7616053251269
 4100.0      49.6853113361052
 4200.0      49.7449573074306
 4300.0      49.7177964886918
 4400.0      49.7483355980513
 4500.0      49.4399661506980
 4600.0      50.8519654003245
 4700.0      45.1928976739948
 4800.0      67.5297533887476
 4900.0     -23.1097923296083
 5000.0     -98.6666102979907
 5100.0      68.8784609101000
 5200.0      52.6282565152472
 5300.0      57.7873981283338
 5400.0      45.3743975731040
 5500.0      58.9870873327149
 5600.0      46.9415945365574
 5700.0      63.2388642804284
 5800.0      42.1297335936320
 5900.0      66.0601935384487
 6000.0      93.7254839938511
# P = 8.000000 (GPa)
    1.0       1.0000000000000
  100.0      15.6778046801671
  200.0      34.1281054097395
  300.0      39.6797301749814
  400.0      43.9929771526706
  500.0      45.7149090162899
  600.0      46.9559243266560
  700.0      47.6654165371618
  800.0      48.1660249313475
  900.0      48.5077088200713
 1000.0      48.7589618914324
 1100.0      48.9450335366990
 1200.0      49.0878868943277
 1300.0      49.2001074650522
 1400.0      49.2880355636491
 1500.0      49.3601797701554
 1600.0      49.4185172659692
 1700.0      49.4667185138523
 1800.0      49.5073471218566
 1900.0      49.5407330778981
 2000.0      49.5693306728409
 2100.0      49.5940289964720
 2200.0      49.6150983197147
 2300.0      49.6329842320067
 2400.0      49.6468276576205
 2500.0      49.6607664254474
 2600.0      49.6745643485563
 2700.0      49.6784120636915
 2800.0      49.6949894213735
 2900.0      49.6946574346821
 3000.0      49.7016228797297
 3100.0      49.7133670839423
 3200.0      49.7072550828892
 3300.0      49.7289924889829
 3400.0      49.7060524317234
 3500.0      49.7320692253704
 3600.0      49.7214057447099
 3700.0      49.7208738779679
 3800.0      49.7443320990637
 3900.0      49.6971289496638
 4000.0      49.7627206573259
 4100.0      49.6877808613912
 4200.0      49.7470260277759
 4300.0      49.7211884467128
 4400.0      49.7518767763265
 4500.0      49.4559317576966
 4600.0      50.8064712063146
 4700.0      45.4861887813808
 4800.0      66.0875198953325
 4900.0     -15.3768896795070
 5000.0     -79.6171325202205
 5100.0      66.1327823404990
 5200.0      52.5793457379771
 5300.0      56.8196536457018
 5400.0      46.2074920256941
 5500.0      57.2504023582393
 5600.0      48.2117931261037
 5700.0      60.7237996536047
 5800.0      43.9786900650978
 5900.0      63.0996679074644
 6000.0      84.9741078358007
# P = 9.000000 (GPa)
    1.0       1.0000000000000
  100.0      15.6526767269391
  200.0      34.1025135031418
  300.0      39.6632577720403
  400.0      43.9815442391686
  500.0      45.7069556921917
  600.0      46.9500223525851
  700.0      47.6609277835932
  800.0      48.1624940408820
  900.0      48.5048915930972
 1000.0      48.7566593392150
 1100.0      48.9431507660161
 1200.0      49.0863338618568
 1300.0      49.1988162522275
 1400.0      49.2869864223838
 1500.0      49.3593232434414
 1600.0      49.4178389022236
 1700.0      49.4662060760829
 1800.0      49.5069789296977
 1900.0      49.5405198419540
 2000.0      49.5692575828924
 2100.0      49.5940852167829
 2200.0      49.6152783226377
 2300.0      49.6332861641392
 2400.0      49.6472777115001
 2500.0      49.6613108893188
 2600.0      49.6751526346929
 2700.0      49.6791906834964
 2800.0      49.6956872291932
 2900.0      49.6955316859513
 3000.0      49.7025358346759
 3100.0      49.7142018639773
 3200.0      49.7082644469673
 3300.0      49.7298100578267
 3400.0      49.7071702138479
 3500.0      49.7329597853757
 3600.0      49.7224358422509
 3700.0      49.7219653664447
 3800.0      49.7452390849479
 3900.0      49.6985870844150
 4000.0      49.7636534892411
 4100.0      49.6896995791220
 4200.0      49.7485322814859
 4300.0      49.7235189928774
 4400.0      49.7542130637375
 4500.0      49.4660361827454
 4600.0      50.7784569082950
 4700.0      45.6648028956073
 4800.0      65.2160532993438
 4900.0     -10.7193013400127
 5000.0     -68.0968625794990
 5100.0      64.4541156806049
 5200.0      52.5494412091435
 5300.0      56.2134387120544
 5400.0      46.7368542862816
 5500.0      56.1365041631680
 5600.0      49.0367527280476
 5700.0      59.0731274112828
 5800.0      45.2064931160801
 5900.0      61.1143901138336
 6000.0      79.0453122070494
# P = 10.000000 (GPa)
    1.0       1.0000000000000
  100.0      15.6280605307250
  200.0      34.0774113090449
  300.0      39.6470896726722
  400.0      43.9703204929717
  500.0      45.6991483296176
  600.0      46.9442316719643
  700.0      47.6565277869893
  800.0      48.1590373211079
  900.0      48.5021372000042
 1000.0      48.7544112927987
 1100.0      48.9413149337880
 1200.0      49.0848214081138
 1300.0      49.1975601974831
 1400.0      49.2859664946519
 1500.0      49.3584908050541
 1600.0      49.4171791131200
 1700.0      49.4657062227274
 1800.0      49.5066170972663
 1900.0      49.5403052347411
 2000.0      49.5691767092423
 2100.0      49.5941298171010
 2200.0      49.6154457771628
 2300.0      49.6335778728261
 2400.0      49.6477241190187
 2500.0      49.6618629452374
 2600.0      49.6757631810113
 2700.0      49.6800221356370
 2800.0      49.6964500418405
 2900.0      49.6965032524803
 3000.0      49.7035573950378
 3100.0      49.7151389550258
 3200.0      49.7094026187724
 3300.0      49.7307310489463
 3400.0      49.7084318235095
 3500.0      49.7339565360746
 3600.0      49.7235774465746
 3700.0      49.7231513000255
 3800.0      49.7461909453253
 3900.0      49.7000582818539
 4000.0      49.7645353915246
 4100.0      49.6913985396642
 4200.0      49.7497656645261
 4300.0      49.7252875913553
 4400.0      49.7558735924472
 4500.0      49.4727721875460
 4600.0      50.7606715390925
