# T (K)       E-ph (Ry.)
# V = 188.616000 (a.u.^3)
    5.0       0.0083732606956
  100.0       0.0089299119993
  200.0       0.0109317798541
  300.0       0.0137852831105
  400.0       0.0170385563835
  500.0       0.0204895404737
  600.0       0.0240491957348
  700.0       0.0276741503355
  800.0       0.0313411551651
  900.0       0.0350367374697
 1000.0       0.0387525876535
 1100.0       0.0424833161875
 1200.0       0.0462252804710
 1300.0       0.0499759328406
 1400.0       0.0537334392775
 1500.0       0.0574964465973
 1600.0       0.0612639349594
 1700.0       0.0650351214035
 1800.0       0.0688093949840
 1900.0       0.0725862720733
 2000.0       0.0763653648917
 2100.0       0.0801463589177
 2200.0       0.0839289963914
 2300.0       0.0877130640779
 2400.0       0.0914983840619
 2500.0       0.0952848067331
 2600.0       0.0990722053780
 2700.0       0.1028604719648
 2800.0       0.1066495138257
 2900.0       0.1104392510217
 3000.0       0.1142296142306
 3100.0       0.1180205430430
 3200.0       0.1218119845748
 3300.0       0.1256038923319
 3400.0       0.1293962252735
 3500.0       0.1331889470360
 3600.0       0.1369820252857
 3700.0       0.1407754311754
 3800.0       0.1445691388872
 3900.0       0.1483631252454
 4000.0       0.1521573693868
 4100.0       0.1559518524795
 4200.0       0.1597465574816
 4300.0       0.1635414689337
 4400.0       0.1673365727793
 4500.0       0.1711318562090
 4600.0       0.1749273075259
 4700.0       0.1787229160266
 4800.0       0.1825186718988
 4900.0       0.1863145661296
 5000.0       0.1901105904266
 5100.0       0.1939067371466
 5200.0       0.1977029992338
 5300.0       0.2014993701642
 5400.0       0.2052958438964
 5500.0       0.2090924148281
 5600.0       0.2128890777566
 5700.0       0.2166858278440
 5800.0       0.2204826605855
 5900.0       0.2242795717816
 6000.0       0.2280765575126
# V = 178.021000 (a.u.^3)
    5.0       0.0090977109869
  100.0       0.0095969042133
  200.0       0.0114601083447
  300.0       0.0141923232713
  400.0       0.0173623546116
  500.0       0.0207561655715
  600.0       0.0242749672121
  700.0       0.0278695409269
  800.0       0.0315131705277
  900.0       0.0351902547056
 1000.0       0.0388911223255
 1100.0       0.0426094787939
 1200.0       0.0463410590514
 1300.0       0.0500828744599
 1400.0       0.0538327704456
 1500.0       0.0575891555149
 1600.0       0.0613508291422
 1700.0       0.0651168689769
 1800.0       0.0688865548746
 1900.0       0.0726593164809
 2000.0       0.0764346962848
 2100.0       0.0802123230749
 2200.0       0.0839918925390
 2300.0       0.0877731528652
 2400.0       0.0915558939025
 2500.0       0.0953399388984
 2600.0       0.0991251381243
 2700.0       0.1029113639071
 2800.0       0.1066985067154
 2900.0       0.1104864720515
 3000.0       0.1142751779591
 3100.0       0.1180645530118
 3200.0       0.1218545346754
 3300.0       0.1256450679671
 3400.0       0.1294361043496
 3500.0       0.1332276008142
 3600.0       0.1370195191161
 3700.0       0.1408118251324
 3800.0       0.1446044883221
 3900.0       0.1483974812684
 4000.0       0.1521907792891
 4100.0       0.1559843601040
 4200.0       0.1597782035503
 4300.0       0.1635722913364
 4400.0       0.1673666068304
 4500.0       0.1711611348756
 4600.0       0.1749558616308
 4700.0       0.1787507744308
 4800.0       0.1825458616638
 4900.0       0.1863411126643
 5000.0       0.1901365176189
 5100.0       0.1939320674824
 5200.0       0.1977277539046
 5300.0       0.2015235691645
 5400.0       0.2053195061121
 5500.0       0.2091155581170
 5600.0       0.2129117190215
 5700.0       0.2167079830997
 5800.0       0.2205043450201
 5900.0       0.2243007998121
 6000.0       0.2280973428363
# V = 167.899000 (a.u.^3)
    5.0       0.0102460620350
  100.0       0.0106045917384
  200.0       0.0122430025676
  300.0       0.0147993570820
  400.0       0.0178497177901
  500.0       0.0211616643710
  600.0       0.0246223793359
  700.0       0.0281741991602
  800.0       0.0317853679610
  900.0       0.0354371750718
 1000.0       0.0391179532732
 1100.0       0.0428200775972
 1200.0       0.0465383662132
 1300.0       0.0502691800275
 1400.0       0.0540098910811
 1500.0       0.0577585556259
 1600.0       0.0615137058586
 1700.0       0.0652742131106
 1800.0       0.0690391955255
 1900.0       0.0728079542613
 2000.0       0.0765799284623
 2100.0       0.0803546628741
 2200.0       0.0841317841532
 2300.0       0.0879109832693
 2400.0       0.0916920022500
 2500.0       0.0954746240698
 2600.0       0.0992586648465
 2700.0       0.1030439677549
 2800.0       0.1068303982326
 2900.0       0.1106178401689
 3000.0       0.1144061928503
 3100.0       0.1181953684924
 3200.0       0.1219852902315
 3300.0       0.1257758904789
 3400.0       0.1295671095645
 3500.0       0.1333588946101
 3600.0       0.1371511985913
 3700.0       0.1409439795492
 3800.0       0.1447371999271
 3900.0       0.1485308260079
 4000.0       0.1523248274360
 4100.0       0.1561191768090
 4200.0       0.1599138493271
 4300.0       0.1637088224915
 4400.0       0.1675040758437
 4500.0       0.1712995907392
 4600.0       0.1750953501515
 4700.0       0.1788913384997
 4800.0       0.1826875414987
 4900.0       0.1864839460274
 5000.0       0.1902805400122
 5100.0       0.1940773123246
 5200.0       0.1978742526910
 5300.0       0.2016713516115
 5400.0       0.2054686002890
 5500.0       0.2092659905650
 5600.0       0.2130635148630
 5700.0       0.2168611661374
 5800.0       0.2206589378277
 5900.0       0.2244568238177
 6000.0       0.2282548183983
# V = 162.905000 (a.u.^3)
    5.0       0.0105676315268
  100.0       0.0109290318309
  200.0       0.0125313852290
  300.0       0.0150329999861
  400.0       0.0180388731013
  500.0       0.0213177937710
  600.0       0.0247537842896
  700.0       0.0282865818431
  800.0       0.0318826905712
  900.0       0.0355222618330
 1000.0       0.0391928722450
 1100.0       0.0428863814670
 1200.0       0.0465972469992
 1300.0       0.0503215709819
 1400.0       0.0540565355561
 1500.0       0.0578000547563
 1600.0       0.0615505523242
 1700.0       0.0653068155329
 1800.0       0.0690678964238
 1900.0       0.0728330434902
 2000.0       0.0766016534209
 2100.0       0.0803732363693
 2200.0       0.0841473905317
 2300.0       0.0879237832547
 2400.0       0.0917021367981
 2500.0       0.0954822174714
 2600.0       0.0992638272462
 2700.0       0.1030467972131
 2800.0       0.1068309824257
 2900.0       0.1106162578019
 3000.0       0.1144025148372
 3100.0       0.1181896589496
 3200.0       0.1219776073177
 3300.0       0.1257662871098
 3400.0       0.1295556340230
 3500.0       0.1333455910713
 3600.0       0.1371361075746
 3700.0       0.1409271383102
 3800.0       0.1447186427986
 3900.0       0.1485105846972
 4000.0       0.1523029312858
 4100.0       0.1560956530264
 4200.0       0.1598887231856
 4300.0       0.1636821175100
 4400.0       0.1674758139448
 4500.0       0.1712697923907
 4600.0       0.1750640344917
 4700.0       0.1788585234503
 4800.0       0.1826532438658
 4900.0       0.1864481815917
 5000.0       0.1902433236111
 5100.0       0.1940386579258
 5200.0       0.1978341734587
 5300.0       0.2016298599674
 5400.0       0.2054257079667
 5500.0       0.2092217086600
 5600.0       0.2130178538780
 5700.0       0.2168141360238
 5800.0       0.2206105480237
 5900.0       0.2244070832827
 6000.0       0.2282037356449
# V = 158.114000 (a.u.^3)
    5.0       0.0110340341158
  100.0       0.0113729288237
  200.0       0.0129062954211
  300.0       0.0153344511566
  400.0       0.0182841220652
  500.0       0.0215223509494
  600.0       0.0249284447986
  700.0       0.0284386574562
  800.0       0.0320172287732
  900.0       0.0356428475083
 1000.0       0.0393021246843
 1100.0       0.0429862643715
 1200.0       0.0466892664081
 1300.0       0.0504069051376
 1400.0       0.0541361224342
 1500.0       0.0578746525591
 1600.0       0.0616207822542
 1700.0       0.0653731926682
 1800.0       0.0691308524244
 1900.0       0.0728929435798
 2000.0       0.0766588092812
 2100.0       0.0804279160670
 2200.0       0.0841998262578
 2300.0       0.0879741774270
 2400.0       0.0917506669243
 2500.0       0.0955290400613
 2600.0       0.0993090809879
 2700.0       0.1030906055720
 2800.0       0.1068734557878
 2900.0       0.1106574952534
 3000.0       0.1144426056527
 3100.0       0.1182286838430
 3200.0       0.1220156395007
 3300.0       0.1258033931919
 3400.0       0.1295918747809
 3500.0       0.1333810221093
 3600.0       0.1371707798944
 3700.0       0.1409610988047
 3800.0       0.1447519346806
 3900.0       0.1485432478746
 4000.0       0.1523350026896
 4100.0       0.1561271668992
 4200.0       0.1599197113363
 4300.0       0.1637126095383
 4400.0       0.1675058374415
 4500.0       0.1712993731149
 4600.0       0.1750931965295
 4700.0       0.1788872893564
 4800.0       0.1826816347904
 4900.0       0.1864762173948
 5000.0       0.1902710229652
 5100.0       0.1940660384085
 5200.0       0.1978612516371
 5300.0       0.2016566514733
 5400.0       0.2054522275662
 5500.0       0.2092479703160
 5600.0       0.2130438708076
 5700.0       0.2168399207501
 5800.0       0.2206361124238
 5900.0       0.2244324386312
 6000.0       0.2282288926540
# V = 153.390000 (a.u.^3)
    5.0       0.0113884839036
  100.0       0.0117343136763
  200.0       0.0132397040102
  300.0       0.0156139245916
  400.0       0.0185166329385
  500.0       0.0217192819079
  600.0       0.0250987668714
  700.0       0.0285887722381
  800.0       0.0321516796501
  900.0       0.0357649157798
 1000.0       0.0394142342307
 1100.0       0.0430902462441
 1200.0       0.0467865326477
 1300.0       0.0504985649975
 1400.0       0.0542230617632
 1500.0       0.0579575892028
 1600.0       0.0617003055203
 1700.0       0.0654497919792
 1800.0       0.0692049384867
 1900.0       0.0729648642748
 2000.0       0.0767288617692
 2100.0       0.0804963561296
 2200.0       0.0842668755967
 2300.0       0.0880400294303
 2400.0       0.0918154912686
 2500.0       0.0955929864195
 2600.0       0.0993722820426
 2700.0       0.1031531794837
 2800.0       0.1069355082327
 2900.0       0.1107191211170
 3000.0       0.1145038904461
 3100.0       0.1182897048950
 3200.0       0.1220764669670
 3300.0       0.1258640909136
 3400.0       0.1296525010184
 3500.0       0.1334416301732
 3600.0       0.1372314186893
 3700.0       0.1410218133010
 3800.0       0.1448127663248
 3900.0       0.1486042349474
 4000.0       0.1523961806198
 4100.0       0.1561885685396
 4200.0       0.1599813672073
 4300.0       0.1637745480433
 4400.0       0.1675680850578
 4500.0       0.1713619545640
 4600.0       0.1751561349286
 4700.0       0.1789506063544
 4800.0       0.1827453506893
 4900.0       0.1865403512591
 5000.0       0.1903355927202
 5100.0       0.1941310609297
 5200.0       0.1979267428298
 5300.0       0.2017226263462
 5400.0       0.2055187002971
 5500.0       0.2093149543122
 5600.0       0.2131113787602
 5700.0       0.2169079646848
 5800.0       0.2207047037461
 5900.0       0.2245015881683
 6000.0       0.2282986106935
# V = 148.733000 (a.u.^3)
    5.0       0.0118339518012
  100.0       0.0121656162453
  200.0       0.0136172569474
  300.0       0.0159243849742
  400.0       0.0187714051704
  500.0       0.0219319460714
  600.0       0.0252796234492
  700.0       0.0287450898568
  800.0       0.0322885938367
  900.0       0.0358861273430
 1000.0       0.0395224736233
 1100.0       0.0431875745942
 1200.0       0.0468745386684
 1300.0       0.0505784963254
 1400.0       0.0542959145299
 1500.0       0.0580241704840
 1600.0       0.0617612777906
 1700.0       0.0655057053715
 1800.0       0.0692562546170
 1900.0       0.0730119741213
 2000.0       0.0767720992881
 2100.0       0.0805360087620
 2200.0       0.0843031924768
 2300.0       0.0880732278682
 2400.0       0.0918457619251
 2500.0       0.0956204974739
 2600.0       0.0993971825798
 2700.0       0.1031756022694
 2800.0       0.1069555720033
 2900.0       0.1107369324830
 3000.0       0.1145195454840
 3100.0       0.1183032904875
 3200.0       0.1220880619365
 3300.0       0.1258737669871
 3400.0       0.1296603236524
 3500.0       0.1334476592624
 3600.0       0.1372357091782
 3700.0       0.1410244157137
 3800.0       0.1448137272260
 3900.0       0.1486035973447
 4000.0       0.1523939843166
 4100.0       0.1561848504452
 4200.0       0.1599761616105
 4300.0       0.1637678868541
 4400.0       0.1675599980226
 4500.0       0.1713524694563
 4600.0       0.1751452777196
 4700.0       0.1789384013654
 4800.0       0.1827318207286
 4900.0       0.1865255177445
 5000.0       0.1903194757900
 5100.0       0.1941136795423
 5200.0       0.1979081148541
 5300.0       0.2017027686434
 5400.0       0.2054976287950
 5500.0       0.2092926840728
 5600.0       0.2130879240414
 5700.0       0.2168833389965
 5800.0       0.2206789199014
 5900.0       0.2244746583310
 6000.0       0.2282705464208
# V = 144.145000 (a.u.^3)
    5.0       0.0122036835628
  100.0       0.0125442681806
  200.0       0.0139717900847
  300.0       0.0162215498013
  400.0       0.0190131212653
  500.0       0.0221284324769
  600.0       0.0254400057263
  700.0       0.0288762246108
  800.0       0.0323954843332
  900.0       0.0359724487895
 1000.0       0.0395909714595
 1100.0       0.0432403390653
 1200.0       0.0469131908918
 1300.0       0.0506043152510
 1400.0       0.0543099248968
 1500.0       0.0580272048454
 1600.0       0.0617540210462
 1700.0       0.0654887272992
 1800.0       0.0692300340245
 1900.0       0.0729769170488
 2000.0       0.0767285529178
 2100.0       0.0804842721836
 2200.0       0.0842435251171
 2300.0       0.0880058561642
 2400.0       0.0917708846582
 2500.0       0.0955382900745
 2600.0       0.0993078006293
 2700.0       0.1030791843728
 2800.0       0.1068522421624
 2900.0       0.1106268020705
 3000.0       0.1144027148961
 3100.0       0.1181798505356
 3200.0       0.1219580950264
 3300.0       0.1257373481219
 3400.0       0.1295175212911
 3500.0       0.1332985360578
 3600.0       0.1370803226139
 3700.0       0.1408628186561
 3800.0       0.1446459684050
 3900.0       0.1484297217733
 4000.0       0.1522140336588
 4100.0       0.1559988633398
 4200.0       0.1597841739559
 4300.0       0.1635699320620
 4400.0       0.1673561072412
 4500.0       0.1711426717705
 4600.0       0.1749296003290
 4700.0       0.1787168697432
 4800.0       0.1825044587647
 4900.0       0.1862923478741
 5000.0       0.1900805191089
 5100.0       0.1938689559113
 5200.0       0.1976576429938
 5300.0       0.2014465662194
 5400.0       0.2052357124957
 5500.0       0.2090250696801
 5600.0       0.2128146264953
 5700.0       0.2166043724536
 5800.0       0.2203942977889
 5900.0       0.2241843933958
 6000.0       0.2279746507747
# V = 139.691000 (a.u.^3)
    5.0       0.0127007639094
  100.0       0.0130328626427
  200.0       0.0144180571607
  300.0       0.0166067598400
  400.0       0.0193449676094
  500.0       0.0224201104906
  600.0       0.0257024837560
  700.0       0.0291175810827
  800.0       0.0326215666562
  900.0       0.0361875351057
 1000.0       0.0397982504182
 1100.0       0.0434422349777
 1200.0       0.0471115822401
 1300.0       0.0508006830847
 1400.0       0.0545054553364
 1500.0       0.0582228612267
 1600.0       0.0619505956475
 1700.0       0.0656868790905
 1800.0       0.0694303166735
 1900.0       0.0731798000148
 2000.0       0.0769344375642
 2100.0       0.0806935042435
 2200.0       0.0844564044515
 2300.0       0.0882226444851
 2400.0       0.0919918117004
 2500.0       0.0957635585753
 2600.0       0.0995375903797
 2700.0       0.1033136555395
 2800.0       0.1070915380322
 2900.0       0.1108710513332
 3000.0       0.1146520335553
 3100.0       0.1184343435177
 3200.0       0.1222178575430
 3300.0       0.1260024668303
 3400.0       0.1297880752862
 3500.0       0.1335745977250
 3600.0       0.1373619583655
 3700.0       0.1411500895692
 3800.0       0.1449389307770
 3900.0       0.1487284276070
 4000.0       0.1525185310874
 4100.0       0.1563091970008
 4200.0       0.1601003853215
 4300.0       0.1638920597302
 4400.0       0.1676841871957
 4500.0       0.1714767376108
 4600.0       0.1752696834761
 4700.0       0.1790629996242
 4800.0       0.1828566629774
 4900.0       0.1866506523353
 5000.0       0.1904449481882
 5100.0       0.1942395325518
 5200.0       0.1980343888209
 5300.0       0.2018295016400
 5400.0       0.2056248567877
 5500.0       0.2094204410743
 5600.0       0.2132162422497
 5700.0       0.2170122489213
 5800.0       0.2208084504804
 5900.0       0.2246048370356
 6000.0       0.2284013993536
# V = 135.372000 (a.u.^3)
    5.0       0.0130843496212
  100.0       0.0134313656795
  200.0       0.0148026164048
  300.0       0.0169392739508
  400.0       0.0196220044517
  500.0       0.0226500501857
  600.0       0.0258941999240
  700.0       0.0292781715071
  800.0       0.0327563820366
  900.0       0.0363005837467
 1000.0       0.0398925653952
 1100.0       0.0435201462973
 1200.0       0.0471749087485
 1300.0       0.0508508667354
 1400.0       0.0545436558162
 1500.0       0.0582500235138
 1600.0       0.0619674989713
 1700.0       0.0656941729536
 1800.0       0.0694285477489
 1900.0       0.0731694325105
 2000.0       0.0769158688438
 2100.0       0.0806670769537
 2200.0       0.0844224160441
 2300.0       0.0881813547706
 2400.0       0.0919434488993
 2500.0       0.0957083242075
 2600.0       0.0994756632498
 2700.0       0.1032451950091
 2800.0       0.1070166867264
 2900.0       0.1107899373945
 3000.0       0.1145647725318
 3100.0       0.1183410399549
 3200.0       0.1221186063326
 3300.0       0.1258973543589
 3400.0       0.1296771804194
 3500.0       0.1334579926528
 3600.0       0.1372397093331
 3700.0       0.1410222575105
 3800.0       0.1448055718660
 3900.0       0.1485895937398
 4000.0       0.1523742703052
 4100.0       0.1561595538611
 4200.0       0.1599454012266
 4300.0       0.1637317732175
 4400.0       0.1675186341956
 4500.0       0.1713059516763
 4600.0       0.1750936959876
 4700.0       0.1788818399728
 4800.0       0.1826703587291
 4900.0       0.1864592293792
 5000.0       0.1902484308695
 5100.0       0.1940379437916
 5200.0       0.1978277502256
 5300.0       0.2016178335993
 5400.0       0.2054081785646
 5500.0       0.2091987708862
 5600.0       0.2129895973427
 5700.0       0.2167806456381
 5800.0       0.2205719043220
 5900.0       0.2243633627184
 6000.0       0.2281550108612
# V = 131.053000 (a.u.^3)
    5.0       0.0135587633434
  100.0       0.0139085531034
  200.0       0.0152520434857
  300.0       0.0173336010057
  400.0       0.0199614313158
  500.0       0.0229446664390
  600.0       0.0261540166199
  700.0       0.0295111039473
  800.0       0.0329683800393
  900.0       0.0364961014691
 1000.0       0.0400749732940
 1100.0       0.0436920340834
 1200.0       0.0473382985060
 1300.0       0.0510073619343
 1400.0       0.0546945463274
 1500.0       0.0583963606015
 1600.0       0.0621101496538
 1700.0       0.0658338600126
 1800.0       0.0695658796111
 1900.0       0.0733049258783
 2000.0       0.0770499660579
 2100.0       0.0808001594759
 2200.0       0.0845548150456
 2300.0       0.0883133595327
 2400.0       0.0920753135440
 2500.0       0.0958402731374
 2600.0       0.0996078955814
 2700.0       0.1033778882142
 2800.0       0.1071499996444
 2900.0       0.1109240127399
 3000.0       0.1146997389965
 3100.0       0.1184770139795
 3200.0       0.1222556936080
 3300.0       0.1260356511054
 3400.0       0.1298167744815
 3500.0       0.1335989644412
 3600.0       0.1373821326377
 3700.0       0.1411662002060
 3800.0       0.1449510965262
 3900.0       0.1487367581740
 4000.0       0.1525231280287
 4100.0       0.1563101545096
 4200.0       0.1600977909213
 4300.0       0.1638859948886
 4400.0       0.1676747278696
 4500.0       0.1714639547314
