# T (K)    Entropy (J K^-1 mol^-1)
# P = 0.000000 (GPa)
    0.0      -2.8570784999551
  100.0       7.6983420609532
  200.0      21.1697267449017
  300.0      34.7996174050544
  400.0      46.2685476553972
  500.0      56.0772314261142
  600.0      64.4943464534588
  700.0      71.8494082920979
  800.0      78.3657723334245
  900.0      84.2147424298692
 1000.0      89.5221093254945
 1100.0      94.3836011462406
 1200.0      98.8729706055835
 1300.0     103.0481589097038
 1400.0     106.9554965908353
 1500.0     110.6326065961351
 1600.0     114.1104850358338
 1700.0     117.4150546393981
 1800.0     120.5682696493739
 1900.0     123.5889730183810
 2000.0     126.4935463663485
 2100.0     129.2964115711957
 2200.0     132.0104467604571
 2300.0     134.6473102466649
 2400.0     137.2177095054288
 2500.0     139.7316410679519
 2600.0     142.1986243710397
 2700.0     144.6278015185986
 2800.0     147.0282863920216
 2900.0     149.4091883363329
 3000.0     151.7798219123144
 3100.0     154.1501970656292
 3200.0     156.5309252854362
 3300.0     158.9329528781950
 3400.0     161.3653474460899
 3500.0     163.8373389652948
 3600.0     166.3587749213195
 3700.0     168.9389672978638
 3800.0     171.5894323439143
 3900.0     174.3196019974372
 4000.0     177.1427630411440
 4100.0     180.0699746827128
 4200.0     183.1147048144060
 4300.0     186.2919753660849
 4400.0     189.6200362483294
 4500.0     193.0864075762773
 4600.0     196.8280631883131
 4700.0     200.4272218716861
 4800.0     205.4987561982972
 4900.0     206.1710913770641
 5000.0     194.0316597640557
 5100.0     186.3181791719300
 5200.0     188.5164539515625
 5300.0     189.9238487297364
 5400.0     190.9337997582212
 5500.0     192.0487008710986
 5600.0     193.1387031014947
 5700.0     194.3514112366953
 5800.0     195.4100299489686
 5900.0     196.4877137739512
 6000.0     199.8131063572662
# P = 1.000000 (GPa)
    0.0      -2.8295309931184
  100.0       7.5980493371486
  200.0      20.9619986614161
  300.0      34.5153589093402
  400.0      45.9381563497280
  500.0      55.7154155980620
  600.0      64.1085487948615
  700.0      71.4432839843486
  800.0      77.9411222671691
  900.0      83.7723486246037
 1000.0      89.0621401412203
 1100.0      93.9058298758876
 1200.0      98.3769022662170
 1300.0     102.5330785269090
 1400.0     106.4205059891868
 1500.0     110.0766452197212
 1600.0     113.5323320387670
 1700.0     116.8133259961376
 1800.0     119.9414069584446
 1900.0     122.9352308912257
 2000.0     125.8109731008572
 2100.0     128.5828211043829
 2200.0     131.2633882475108
 2300.0     133.8640311250159
 2400.0     136.3951156271675
 2500.0     138.8662321264790
 2600.0     141.2864123113606
 2700.0     143.6642661747036
 2800.0     146.0082240416983
 2900.0     148.3266097440863
 3000.0     150.6278059141549
 3100.0     152.9206395870899
 3200.0     155.2142019341712
 3300.0     157.5186199336891
 3400.0     159.8445911553910
 3500.0     162.2025253642773
 3600.0     164.6017370449598
 3700.0     167.0510735835213
 3800.0     169.5612238360640
 3900.0     172.1412434995061
 4000.0     174.8034109307363
 4100.0     177.5582277701448
 4200.0     180.4183031317432
 4300.0     183.3975557324871
 4400.0     186.5129234819182
 4500.0     189.7550077416971
 4600.0     193.2422030395869
 4700.0     196.6192756768724
 4800.0     201.2671813402475
 4900.0     202.1724642261148
 5000.0     192.0582828846470
 5100.0     185.6465092939140
 5200.0     187.7123975772241
 5300.0     189.1073965790912
 5400.0     190.1511766040742
 5500.0     191.2835141499932
 5600.0     192.3906508217793
 5700.0     193.6052115608309
 5800.0     194.6790929166756
 5900.0     195.7709953231287
 6000.0     198.8374667415500
# P = 2.000000 (GPa)
    0.0      -2.8041192363370
  100.0       7.5046798837594
  200.0      20.7665043442651
  300.0      34.2459317484661
  400.0      45.6240948796862
  500.0      55.3710923531074
  600.0      63.7412988046109
  700.0      71.0567416408954
  800.0      77.5371250386292
  900.0      83.3517220027995
 1000.0      88.6251209320323
 1100.0      93.4522825888196
 1200.0      97.9064178700810
 1300.0     102.0450488536824
 1400.0     105.9141616994759
 1500.0     109.5510631546481
 1600.0     112.9864431266381
 1700.0     116.2459210422861
 1800.0     119.3511267094830
 1900.0     122.3205546671203
 2000.0     125.1702043275033
 2100.0     127.9140652723724
 2200.0     130.5645289556959
 2300.0     133.1327010463434
 2400.0     135.6286641319362
 2500.0     138.0616777917609
 2600.0     140.4403773367802
 2700.0     142.7729366918833
 2800.0     145.0672473621636
 2900.0     147.3310046240455
 3000.0     149.5718663154813
 3100.0     151.7977133067197
 3200.0     154.0165687869467
 3300.0     156.2371849072468
 3400.0     158.4686062129868
 3500.0     160.7212556806257
 3600.0     163.0063993221789
 3700.0     165.3335711218421
 3800.0     167.7125800241199
 3900.0     170.1521260732231
 4000.0     172.6635399253998
 4100.0     175.2567765921608
 4200.0     177.9436232127156
 4300.0     180.7369655381073
 4400.0     183.6524935191676
 4500.0     186.6835142183500
 4600.0     189.9317097143901
 4700.0     193.0978087459443
 4800.0     197.3530887630293
 4900.0     198.4529416569345
 5000.0     190.1480504371920
 5100.0     184.9052361658685
 5200.0     186.8536598196592
 5300.0     188.2384243449491
 5400.0     189.3140249789693
 5500.0     190.4629965523699
 5600.0     191.5870878420658
 5700.0     192.8045537255201
 5800.0     193.8936469654351
 5900.0     194.9996593909805
 6000.0     197.8300336399883
# P = 3.000000 (GPa)
    0.0      -2.7807026771966
  100.0       7.4178209951332
  200.0      20.5825165378288
  300.0      33.9904591762618
  400.0      45.3253949780287
  500.0      55.0432110449774
  600.0      63.3914610651890
  700.0      70.6885667689180
  800.0      77.1524682898524
  900.0      82.9514521615662
 1000.0      88.2095407852384
 1100.0      93.0213163772209
 1200.0      97.4597468742102
 1300.0     101.5821627500908
 1400.0     105.4343878400523
 1500.0     109.0535994318704
 1600.0     112.4703599709093
 1700.0     115.7101584241189
 1800.0     118.7944921469866
 1900.0     121.7417191559241
 2000.0     124.5676888546741
 2100.0     127.2862219299561
 2200.0     129.9095225257358
 2300.0     132.4484861348274
 2400.0     134.9129598628013
 2500.0     137.3119291357094
 2600.0     139.6537047023988
 2700.0     141.9461092770097
 2800.0     144.1965904587180
 2900.0     146.4123468124996
 3000.0     148.6004621543528
 3100.0     150.7680654288478
 3200.0     152.9223590686881
 3300.0     155.0710204483584
 3400.0     157.2218964175216
 3500.0     159.3837409901145
 3600.0     161.5662304843800
 3700.0     163.7800377871652
 3800.0     166.0367731345919
 3900.0     168.3452672479864
 4000.0     170.7158825197863
 4100.0     173.1580601091616
 4200.0     175.6827958784086
 4300.0     178.3020108036182
 4400.0     181.0302095825461
 4500.0     183.8630524033443
 4600.0     186.8872691537157
 4700.0     189.8533489894498
 4800.0     193.7457315655077
 4900.0     195.0045430468058
 5000.0     188.3054009707068
 5100.0     184.1058923299366
 5200.0     185.9504625762127
 5300.0     187.3266252357513
 5400.0     188.4317394649877
 5500.0     189.5962195730002
 5600.0     190.7367246626154
 5700.0     191.9577552609535
 5800.0     193.0616848588988
 5900.0     194.1814027869444
 6000.0     196.7971660014374
# P = 4.000000 (GPa)
    0.0      -2.7591488283828
  100.0       7.3370888060530
  200.0      20.4093636535631
  300.0      33.7481301545853
  400.0      45.0411622651853
  500.0      54.7308010558276
  600.0      63.0579939560708
  700.0      70.3376394974670
  800.0      76.7859495201014
  900.0      82.5702535075092
 1000.0      87.8140072157292
 1100.0      92.6114425991066
 1200.0      97.0352851188076
 1300.0     101.1426763108898
 1400.0     104.9793076094340
 1500.0     108.5822247002565
 1600.0     111.9818699557767
 1700.0     115.2036270748492
 1800.0     118.2688767645576
 1900.0     121.1958528272478
 2000.0     124.0002752705515
 2100.0     126.6958230105494
 2200.0     129.2945414312937
 2300.0     131.8071483776242
 2400.0     134.2432937518038
 2500.0     136.6117349261724
 2600.0     138.9205138083155
 2700.0     141.1771654560735
 2800.0     143.3887788506166
 2900.0     145.5621456655039
 3000.0     147.7038917837681
 3100.0     149.8205519563033
 3200.0     151.9186772481764
 3300.0     154.0051115749998
 3400.0     156.0867694559829
 3500.0     158.1711859458117
 3600.0     160.2665738101045
 3700.0     162.3816939605241
 3800.0     164.5270684288063
 3900.0     166.7136838172792
 4000.0     168.9531713973620
 4100.0     171.2545172378865
 4200.0     173.6279519645122
 4300.0     176.0844974865213
 4400.0     178.6375349843795
 4500.0     181.2847476991039
 4600.0     184.0995672086932
 4700.0     186.8764243743926
 4800.0     190.4343627162637
 4900.0     191.8192877700000
 5000.0     186.5347731540704
 5100.0     183.2600100130134
 5200.0     185.0130277395132
 5300.0     186.3816927313501
 5400.0     187.5137142346709
 5500.0     188.6922548739784
 5600.0     189.8482717925535
 5700.0     191.0731336733430
 5800.0     192.1911993045201
 5900.0     193.3239217637295
 6000.0     195.7452251294865
# P = 5.000000 (GPa)
    0.0      -2.7393359893497
  100.0       7.2621274685760
  200.0      20.2464217904009
  300.0      33.5181952188657
  400.0      44.7705679925765
  500.0      54.4329674289415
  600.0      62.7399356571256
  700.0      70.0029277444446
  800.0      76.4364668627022
  900.0      82.2069394328551
 1000.0      87.4372536026143
 1100.0      92.2212996221901
 1200.0      96.6315608359218
 1300.0     100.7250173574784
 1400.0     104.5472166838808
 1500.0     108.1350901126271
 1600.0     111.5189819848737
 1700.0     114.7241658174135
 1800.0     117.7719215460453
 1900.0     120.6803828586945
 2000.0     123.4651548822639
 2100.0     126.1397905956135
 2200.0     128.7162006496302
 2300.0     131.2049543705397
 2400.0     133.6155354202240
 2500.0     135.9565098773058
 2600.0     138.2356958720615
 2700.0     140.4603908599080
 2800.0     142.6373885515250
 2900.0     144.7731521393490
 3000.0     146.8739356992218
 3100.0     148.9457913626425
 3200.0     150.9947630315481
 3300.0     153.0270297577341
 3400.0     155.0487797127552
 3500.0     157.0666193646892
 3600.0     159.0876057027706
 3700.0     161.1191942046283
 3800.0     163.1700813510610
 3900.0     165.2492452392963
 4000.0     167.3682068882043
 4100.0     169.5385687624350
 4200.0     171.7712271514683
 4300.0     174.0762302803785
 4400.0     176.4659333657960
 4500.0     178.9397253663538
 4600.0     181.5592897810223
 4700.0     184.1575628814122
 4800.0     187.4082352460002
 4900.0     188.8891952395917
 5000.0     184.8406056850147
 5100.0     182.3791214510864
 5200.0     184.0515771549353
 5300.0     185.4133203841515
 5400.0     186.5693436338333
 5500.0     187.7601739693715
 5600.0     188.9304399181064
 5700.0     190.1590062041093
 5800.0     191.2901829609024
 5900.0     192.4349133294939
 6000.0     194.6805702498986
# P = 6.000000 (GPa)
    0.0      -2.7211515419706
  100.0       7.1926065053430
  200.0      20.0931109986805
  300.0      33.2999598292749
  400.0      44.5128440726736
  500.0      54.1488819168700
  600.0      62.4363964687604
  700.0      69.6834816557399
  800.0      76.1030027201779
  900.0      81.8604226943510
 1000.0      87.0781170310487
 1100.0      91.8496354497158
 1200.0      96.2472398369242
 1300.0     100.3277428521115
 1400.0     104.1365630134599
 1500.0     107.7105321233174
 1600.0     111.0798856128636
 1700.0     114.2698154816065
 1800.0     117.3015116666477
 1900.0     120.1930061873865
 2000.0     122.9598115824946
 2100.0     125.6153771019778
 2200.0     128.1714938306474
 2300.0     130.6386018097942
 2400.0     133.0260451913373
 2500.0     135.3422304499981
 2600.0     137.5947880994547
 2700.0     139.7908178505789
 2800.0     141.9368689921173
 2900.0     144.0391344574857
 3000.0     146.1035674629617
 3100.0     148.1358293275565
 3200.0     150.1415510022958
 3300.0     152.1263887622694
 3400.0     154.0959581959328
 3500.0     156.0561359267201
 3600.0     158.0130875847623
 3700.0     159.9732780162507
 3800.0     161.9440106998001
 3900.0     163.9328298002390
 4000.0     165.9490018325345
 4100.0     168.0022644182013
 4200.0     170.1047991627744
 4300.0     172.2690026094261
 4400.0     174.5068713654272
 4500.0     176.8191098826576
 4600.0     179.2571230048799
 4700.0     181.6872923713636
 4800.0     184.6566022206033
 4900.0     186.2062849087287
 5000.0     183.2273371072293
 5100.0     181.4747589818293
 5200.0     183.0763327373243
 5300.0     184.4312016444539
 5400.0     185.6080219712728
 5500.0     186.8090482832279
 5600.0     187.9919395676790
 5700.0     189.2236904578411
 5800.0     190.3666285389250
 5900.0     191.5220738665244
 6000.0     193.6095620013094
# P = 7.000000 (GPa)
    0.0      -2.7044909301194
  100.0       7.1282188070929
  200.0      19.9488922808640
  300.0      33.0927780109567
  400.0      44.2672782437890
  500.0      53.8777761638095
  600.0      62.1465539522218
  700.0      69.3784226054413
  800.0      75.7846185506860
  900.0      81.5297027244443
 1000.0      86.7355250212010
 1100.0      91.4953074346040
 1200.0      95.8810943948419
 1300.0      99.9495363149107
 1400.0     103.7459387092296
 1500.0     107.3070233421243
 1600.0     110.6629449165420
 1700.0     113.8388120703040
 1800.0     116.8557253126188
 1900.0     119.7316463555347
 2000.0     122.4819962248663
 2100.0     125.1201269833604
 2200.0     127.6577359375020
 2300.0     130.1051538529662
 2400.0     132.4716020183538
 2500.0     134.7653502268181
 2600.0     136.9938728340678
 2700.0     139.1641049842418
 2800.0     141.2823920535525
 2900.0     143.3547034675269
 3000.0     145.3867449242209
 3100.0     147.3838591424081
 3200.0     149.3513456022424
 3300.0     151.2944336249095
 3400.0     153.2182867230539
 3500.0     155.1282095991360
 3600.0     157.0296617460680
 3700.0     158.9283480809118
 3800.0     160.8305060570344
 3900.0     162.7425870314893
 4000.0     164.6722392786760
 4100.0     166.6274724858395
 4200.0     168.6178939643177
 4300.0     170.6545959116290
 4400.0     172.7518151804963
 4500.0     174.9140258484635
 4600.0     177.1837529737208
 4700.0     179.4561407535374
 4800.0     182.1687166559123
 4900.0     183.7625761659585
 5000.0     181.6994061240058
 5100.0     180.5584548759817
 5200.0     182.0975163161453
 5300.0     183.4450299805328
 5400.0     184.6391435379837
 5500.0     185.8479494227096
 5600.0     187.0414813314397
 5700.0     188.2755037924521
 5800.0     189.4285287681283
 5900.0     190.5931000856810
 6000.0     192.5385605039626
# P = 8.000000 (GPa)
    0.0      -2.6892574498691
  100.0       7.0686786318829
  200.0      19.8132641789981
  300.0      32.8960483298730
  400.0      44.0332090832523
  500.0      53.6189366257779
  600.0      61.8696462991337
  700.0      69.0869366681902
  800.0      75.4804481392505
  900.0      81.2138547242878
 1000.0      86.4084921699117
 1100.0      91.1572631052609
 1200.0      95.5319973728651
 1300.0      99.5891961087396
 1400.0     103.3740478308167
 1500.0     106.9231806500174
 1600.0     110.2666705841190
 1700.0     113.4295427494154
 1800.0     116.4328363708438
 1900.0     119.2944300055356
 2000.0     122.0296706694256
 2100.0     124.6518377428646
 2200.0     127.1725320944920
 2300.0     129.6019911018665
 2400.0     131.9493387698526
 2500.0     134.2227272504441
 2600.0     136.4294955714046
 2700.0     138.5764397606985
 2800.0     140.6697362511776
 2900.0     142.7151688857630
 3000.0     144.7182382712797
 3100.0     146.6840246662875
 3200.0     148.6175575116501
 3300.0     150.5237211525670
 3400.0     152.4073150047001
 3500.0     154.2731828231537
 3600.0     156.1262339754115
 3700.0     157.9715752083484
 3800.0     159.8146121979273
 3900.0     161.6609700438800
 4000.0     163.5170694024704
 4100.0     165.3896040139130
 4200.0     167.2864319207098
 4300.0     169.2164017380381
 4400.0     171.1907676045288
 4500.0     173.2156809677531
 4600.0     175.3298435117077
 4700.0     177.4546418916655
 4800.0     179.9338299982811
 4900.0     181.5500888574977
 5000.0     180.2612512456324
 5100.0     179.6417414657686
 5200.0     181.1253497314188
 5300.0     182.4644988766377
 5400.0     183.6721027053974
 5500.0     184.8859488876963
 5600.0     186.0877757679237
 5700.0     187.3227636509099
 5800.0     188.4838763536724
 5900.0     189.6556886141675
 6000.0     191.4739258835127
# P = 9.000000 (GPa)
    0.0      -2.6753611291590
  100.0       7.0137195148812
  200.0      19.6857594415415
  300.0      32.7092104939265
  400.0      43.8100209770873
  500.0      53.3717002060257
  600.0      61.6049656151653
  700.0      68.8082695787280
  800.0      75.1896892152126
  900.0      80.9120239460736
 1000.0      86.0961094488853
 1100.0      90.8345316375682
 1200.0      95.1989154861500
 1300.0      99.2456153256825
 1400.0     103.0197085792576
 1500.0     106.5577383255765
 1600.0     109.8896983860696
 1700.0     113.0405522998027
 1800.0     116.0312673108498
 1900.0     118.8796573621010
 2000.0     121.6010093970458
 2100.0     124.2085192469753
 2200.0     126.7137221565206
 2300.0     129.1267744693936
 2400.0     131.4567030511995
 2500.0     133.7115661277097
 2600.0     135.8985925153308
 2700.0     138.0244574882181
 2800.0     140.0951929592949
 2900.0     142.1164278756735
 3000.0     144.0934934822205
 3100.0     146.0312528425547
 3200.0     147.9345132496267
 3300.0     149.8078759884374
 3400.0     151.6558478098706
 3500.0     153.4829017136554
 3600.0     155.2935006756258
 3700.0     157.0922865337133
 3800.0     158.8840098661567
 3900.0     160.6736546555926
 4000.0     162.4666973299787
 4100.0     164.2688392420660
 4200.0     166.0866313938205
 4300.0     167.9272580147335
 4400.0     169.7998252360203
 4500.0     171.7091712212307
 4600.0     173.6855643449943
 4700.0     175.6733841891066
 4800.0     177.9411790704481
 4900.0     179.5608467389292
 5000.0     178.9173099558457
 5100.0     178.7361513519820
 5200.0     180.1700547680350
 5300.0     181.4993018328226
 5400.0     182.7162937678314
 5500.0     183.9321181965795
 5600.0     185.1395334605133
 5700.0     186.3737874795867
 5800.0     187.5406639795408
 5900.0     188.7175360474389
 6000.0     190.4220184339682
# P = 10.000000 (GPa)
    0.0      -2.6627180643979
  100.0       6.9630926068434
  200.0      19.5659420623241
  300.0      32.5317420258271
  400.0      43.5971399586088
  500.0      53.1354497852669
  600.0      61.3518535384909
  700.0      68.5417213487016
  800.0      74.9115974473762
  900.0      80.6234201446135
 1000.0      85.7975356339482
 1100.0      90.5262185681475
 1200.0      94.8808954722696
 1300.0      98.9177767102078
 1400.0     102.6818367076603
 1500.0     106.2095328221524
 1600.0     109.5307886173320
 1700.0     112.6705052984244
 1800.0     115.6495857415125
 1900.0     118.4857931215801
 2000.0     121.1943434918729
 2100.0     123.7883808786569
 2200.0     126.2793703711361
 2300.0     128.6773910825828
 2400.0     130.9914053071841
 2500.0     133.2293792175585
 2600.0     135.3984415473105
 2700.0     137.5051734490270
 2800.0     139.5554856131954
 2900.0     141.5548736000297
 3000.0     143.5085251196801
 3100.0     145.4211238497167
 3200.0     147.2972942262257
 3300.0     149.1414036449282
 3400.0     150.9577199579780
 3500.0     152.7504154746304
 3600.0     154.5235946242844
 3700.0     156.2815257042429
 3800.0     158.0284357499428
 3900.0     159.7688188100593
 4000.0     161.5074042067306
 4100.0     163.2491365931556
 4200.0     164.9995759005423
 4300.0     166.7646568009281
 4400.0     168.5518644782239
 4500.0     170.3653203457076
 4600.0     172.2280915714717
