# T (K)      Entropy (J K^-1 mol^-1)
# V = 188.616000 (a.u.^3)
    0.0      -4.1051031727561
  100.0      11.7173831494445
  200.0      28.5867215520584
  300.0      43.9646031829734
  400.0      56.1796607356902
  500.0      66.3032702338338
  600.0      74.8174247536179
  700.0      82.1531947339728
  800.0      88.5798785294015
  900.0      94.2929313048697
 1000.0      99.4311467542954
 1100.0     104.0976852943862
 1200.0     108.3705135487284
 1300.0     112.3101251958572
 1400.0     115.9641446852946
 1500.0     119.3707826633132
 1600.0     122.5611623137129
 1700.0     125.5608728296107
 1800.0     128.3912820808030
 1900.0     131.0703527192885
 2000.0     133.6133414841845
 2100.0     136.0333548920990
 2200.0     138.3416888590870
 2300.0     140.5481418749664
 2400.0     142.6612429504008
 2500.0     144.6885484109588
 2600.0     146.6368154338424
 2700.0     148.5118122868040
 2800.0     150.3189334731063
 2900.0     152.0628857605131
 3000.0     153.7477654675137
 3100.0     155.3776853354280
 3200.0     156.9559170521358
 3300.0     158.4858005465952
 3400.0     159.9699747692190
 3500.0     161.4111365037461
 3600.0     162.8119246146439
 3700.0     164.1741468351485
 3800.0     165.5003551226498
 3900.0     166.7917902266683
 4000.0     168.0507509184556
 4100.0     169.2785323768595
 4200.0     170.4765098689115
 4300.0     171.6467432101187
 4400.0     172.7901430526777
 4500.0     173.9049098420557
 4600.0     175.0065324160471
 4700.0     176.0441758611079
 4800.0     177.2065004094148
 4900.0     177.8022889347931
 5000.0     177.1316006987251
 5100.0     177.1589712815541
 5200.0     178.2809624469921
 5300.0     179.3099968464895
 5400.0     180.2726306313700
 5500.0     181.2086991376483
 5600.0     182.1539757807712
 5700.0     183.0992660700276
 5800.0     184.0024435225751
 5900.0     184.8994684746096
 6000.0     185.9677584665010
# V = 187.870960 (a.u.^3)
    0.0      -4.0533220735164
  100.0      11.5578008589047
  200.0      28.3019556726084
  300.0      43.6217347720095
  400.0      55.8110480156802
  500.0      65.9212295106699
  600.0      74.4277661345922
  700.0      81.7588166785148
  800.0      88.1824172999435
  900.0      93.8933662097229
 1000.0      99.0301008088350
 1100.0     103.6955722055094
 1200.0     107.9676239310904
 1300.0     111.9066630029814
 1400.0     115.5602620071522
 1500.0     118.9665951276288
 1600.0     122.1567568128666
 1700.0     125.1563192668922
 1800.0     127.9866353013704
 1900.0     130.6656578849828
 2000.0     133.2086368947657
 2100.0     135.6286707507613
 2200.0     137.9370499613604
 2300.0     140.1435697217079
 2400.0     142.2567596597079
 2500.0     144.2841726280683
 2600.0     146.2325562746091
 2700.0     148.1076884406269
 2800.0     149.9149539959386
 2900.0     151.6590598451384
 3000.0     153.3441139877406
 3100.0     154.9742066815654
 3200.0     156.5526233117223
 3300.0     158.0826929706654
 3400.0     159.5670683321565
 3500.0     161.0084416124376
 3600.0     162.4094354179061
 3700.0     163.7718854286846
 3800.0     165.0983063028518
 3900.0     166.3899836452609
 4000.0     167.6491772913030
 4100.0     168.8772030512308
 4200.0     170.0754433746941
 4300.0     171.2459133082049
 4400.0     172.3895483023161
 4500.0     173.5047557636648
 4600.0     174.6060320458123
 4700.0     175.6461409385946
 4800.0     176.8007096394511
 4900.0     177.4265968522571
 5000.0     176.8738750277388
 5100.0     176.9686072851321
 5200.0     178.0808622652903
 5300.0     179.1070953784407
 5400.0     180.0691644954750
 5500.0     181.0035068326285
 5600.0     181.9475105022700
 5700.0     182.8908209160390
 5800.0     183.7925313835161
 5900.0     184.6882011280302
 6000.0     185.7401551514308
# V = 187.125919 (a.u.^3)
    0.0      -4.0023279520476
  100.0      11.4001926957737
  200.0      28.0202118499700
  300.0      43.2819286892012
  400.0      55.4453930712475
  500.0      65.5420618542394
  600.0      74.0409202751587
  700.0      81.3672084942242
  800.0      87.7876940078959
  900.0      93.4965140971852
 1000.0      98.6317474623666
 1100.0     103.2961344155757
 1200.0     107.5673943106381
 1300.0     111.5058469935041
 1400.0     115.1590127014695
 1500.0     118.5650288392589
 1600.0     121.7549609742658
 1700.0     124.7543641310822
 1800.0     127.5845759788267
 1900.0     130.2635397070651
 2000.0     132.8064982448367
 2100.0     135.2265419169325
 2200.0     137.5349558036605
 2300.0     139.7415317699708
 2400.0     141.8547999502277
 2500.0     143.8823097272486
 2600.0     145.8307993913267
 2700.0     147.7060560827929
 2800.0     149.5134552179910
 2900.0     151.2577038079758
 3000.0     152.9429212189327
 3100.0     154.5731757432675
 3200.0     156.1517661379460
 3300.0     157.6820108407345
 3400.0     159.1665759724698
 3500.0     160.6081492594485
 3600.0     162.0093373932625
 3700.0     163.3720033783260
 3800.0     164.6986253933085
 3900.0     165.9905329085984
 4000.0     167.2499476497682
 4100.0     168.4782056291217
 4200.0     169.6766963219794
 4300.0     170.8473909527315
 4400.0     171.9912492023055
 4500.0     173.1068811906363
 4600.0     174.2078113876373
 4700.0     175.2503274432210
 4800.0     176.3972945935290
 4900.0     177.0526476482350
 5000.0     176.6154142787054
 5100.0     176.7760518515396
 5200.0     177.8787266807279
 5300.0     178.9021878098644
 5400.0     179.8636650012727
 5500.0     180.7962662289530
 5600.0     181.7389914378092
 5700.0     182.6803364182681
 5800.0     183.5805737908076
 5900.0     184.4748873443485
 6000.0     185.5108107841855
# V = 186.380879 (a.u.^3)
    0.0      -3.9521279113157
  100.0      11.2445831279542
  200.0      27.7415269483917
  300.0      42.9452227490452
  400.0      55.0827326654395
  500.0      65.1658029935383
  600.0      73.6569221693996
  700.0      80.9784046798277
  800.0      87.3957428258275
  900.0      93.1024089282025
 1000.0      98.2361205432635
 1100.0     102.8994056759022
 1200.0     107.1698584005832
 1300.0     111.1077108715918
 1400.0     114.7604304845771
 1500.0     118.1661175424835
 1600.0     121.3558085826147
 1700.0     124.3550412565936
 1800.0     127.1851380047577
 1900.0     129.8640321399926
 2000.0     132.4069595559728
 2100.0     134.8270024830307
 2200.0     137.1354405523169
 2300.0     139.3420622623607
 2400.0     141.4553981419604
 2500.0     143.4829941068100
 2600.0     145.4315792627469
 2700.0     147.3069497720521
 2800.0     149.1144717790026
 2900.0     150.8588523703029
 3000.0     152.5442219615139
 3100.0     154.1746274022661
 3200.0     155.7533804928433
 3300.0     157.2837892000599
 3400.0     158.7685328124964
 3500.0     160.2102946448029
 3600.0     161.6116658204182
 3700.0     162.9745360390410
 3800.0     164.3013478282319
 3900.0     165.5934735236753
 4000.0     166.8530975759386
 4100.0     168.0815757651336
 4200.0     169.2803044337336
 4300.0     170.4512119408559
 4400.0     171.5952816248265
 4500.0     172.7113220187120
 4600.0     173.8119065565780
 4700.0     174.8567710070777
 4800.0     175.9962929733906
 4900.0     176.6804716395347
 5000.0     176.3562194777684
 5100.0     176.5812892604476
 5200.0     177.6745426600544
 5300.0     178.6952622756774
 5400.0     179.6561208045956
 5500.0     180.5869665354691
 5600.0     181.5284086059500
 5700.0     182.4678036022499
 5800.0     183.3665625316877
 5900.0     184.2595197207244
 6000.0     185.2797216649585
# V = 185.635838 (a.u.^3)
    0.0      -3.9027290483225
  100.0      11.0909969047172
  200.0      27.4659382331307
  300.0      42.6116551883351
  400.0      54.7231039756495
  500.0      64.7924890567656
  600.0      73.2758071988257
  700.0      80.5924401132301
  800.0      87.0065983002896
  900.0      92.7110850347808
 1000.0      97.8432542497313
 1100.0     102.5054201075743
 1200.0     106.7750502847875
 1300.0     110.7122887136802
 1400.0     114.3645494472183
 1500.0     117.7698953586198
 1600.0     120.9593338026066
 1700.0     123.9583848611056
 1800.0     126.7883556575074
 1900.0     129.4671695287202
 2000.0     132.0100552442075
 2100.0     134.4300869400079
 2200.0     136.7385387764078
 2300.0     138.9451958486084
 2400.0     141.0585889665556
 2500.0     143.0862605813085
 2600.0     145.0349307885904
 2700.0     146.9104044929168
 2800.0     148.7180387493892
 2900.0     150.4625406890610
 3000.0     152.1480514566707
 3100.0     153.7785969862136
 3200.0     155.3575017895635
 3300.0     156.8880635483453
 3400.0     158.3729744363650
 3500.0     159.8149134357733
 3600.0     161.2164564518188
 3700.0     162.5795192441524
 3800.0     163.9065095258443
 3900.0     165.1988414871198
 4000.0     166.4586631473572
 4100.0     167.6873496151400
 4200.0     168.8863039400200
 4300.0     170.0574125828132
 4400.0     171.2016819611190
 4500.0     172.3181146686568
 4600.0     173.4183541989826
 4700.0     174.4655077991257
 4800.0     175.5977430259896
 4900.0     176.3100996863745
 5000.0     176.0962921783053
 5100.0     176.3843043227356
 5200.0     177.4682977282235
 5300.0     178.4863074965952
 5400.0     179.4465211727547
 5500.0     180.3755975925396
 5600.0     181.3157526833012
 5700.0     182.2532141774295
 5800.0     183.1504901005505
 5900.0     184.0420915850538
 6000.0     185.0468848288162
# V = 184.890798 (a.u.^3)
    0.0      -3.8541384498203
  100.0      10.9394590570986
  200.0      27.1934833696581
  300.0      42.2812646658294
  400.0      54.3665445934633
  500.0      64.4221565708430
  600.0      72.8976111316401
  700.0      80.2093500505667
  800.0      86.6202953507251
  900.0      92.3225771187764
 1000.0      97.4531831484633
 1100.0     102.1142122001199
 1200.0     106.3830044164203
 1300.0     110.3196149671016
 1400.0     113.9714040532383
 1500.0     117.3763967846986
 1600.0     120.5655711776568
 1700.0     123.5644295443479
 1800.0     126.3942636010633
 1900.0     129.0729866076326
 2000.0     131.6158201189891
 2100.0     134.0358301764275
 2200.0     136.3442854469661
 2300.0     138.5509675848402
 2400.0     140.6644075666389
 2500.0     142.6921443810299
 2600.0     144.6408892891200
 2700.0     146.5164556553558
 2800.0     148.3241916300421
 2900.0     150.0688043567894
 3000.0     151.7544453863688
 3100.0     153.3851202688417
 3200.0     154.9641658927212
 3300.0     156.4948698421624
 3400.0     157.9799368906342
 3500.0     159.4220417676293
 3600.0     160.8237455135677
 3700.0     162.1869893063633
 3800.0     163.5141468895104
 3900.0     164.8066732866483
 4000.0     166.0666809385195
 4100.0     167.2955638379488
 4200.0     168.4947315799522
 4300.0     169.6660297039423
 4400.0     170.8104871237121
 4500.0     171.9272960887614
 4600.0     173.0271914950089
 4700.0     174.0765745283378
 4800.0     175.2016835452203
 4900.0     175.9415632003442
 5000.0     175.8356344933100
 5100.0     176.1850824273575
 5200.0     177.2599800141250
 5300.0     178.2753128252013
 5400.0     179.2348560312835
 5500.0     180.1621499191193
 5600.0     181.1010150521418
 5700.0     182.0365605850087
 5800.0     182.9323497472089
 5900.0     183.8225970446876
 6000.0     184.8122980910796
# V = 184.145758 (a.u.^3)
    0.0      -3.8063631872048
  100.0      10.7899948979561
  200.0      26.9242004225052
  300.0      41.9540902615798
  400.0      54.0130925240757
  500.0      64.0548424606271
  600.0      72.5223701216257
  700.0      79.8291701248635
  800.0      86.2368692679643
  900.0      91.9369202502757
 1000.0      97.0659421729597
 1100.0     101.7258168097354
 1200.0     105.9937556161976
 1300.0     109.9297244483235
 1400.0     113.5810291377984
 1500.0     116.9856566917685
 1600.0     120.1745556282362
 1700.0     123.1732102864643
 1800.0     126.0028968834680
 1900.0     128.6815184990530
 2000.0     131.2242893817999
 2100.0     133.6442674771113
 2200.0     135.9527159356784
 2300.0     138.1594129324338
 2400.0     140.2728894947859
 2500.0     142.3006811509952
 2600.0     144.2494905042534
 2700.0     146.1251390940660
 2800.0     147.9329663517045
 2900.0     149.6776794010877
 3000.0     151.3634398730277
 3100.0     152.9942334697075
 3200.0     154.5734091182640
 3300.0     156.1042444950189
 3400.0     157.5894566843979
 3500.0     159.0317162439596
 3600.0     160.4335697059018
 3700.0     161.7969830183934
 3800.0     163.1242968085604
 3900.0     164.4170059019396
 4000.0     165.6771880220213
 4100.0     166.9062555966249
 4200.0     168.1056246031018
 4300.0     169.2771006463413
 4400.0     170.4217345482428
 4500.0     171.5389037568627
 4600.0     172.6384561607541
 4700.0     173.6900084464825
 4800.0     174.8081538731725
 4900.0     175.5748941523422
 5000.0     175.5742491294727
 5100.0     175.9836095909578
 5200.0     177.0495782989484
 5300.0     178.0622682945708
 5400.0     179.0211160132870
 5500.0     179.9466147624503
 5600.0     180.8841878505609
 5700.0     181.8178360484686
 5800.0     182.7121355277193
 5900.0     183.6010310375220
 6000.0     184.5759600954992
# V = 183.400717 (a.u.^3)
    0.0      -3.7594103117397
  100.0      10.6426300219611
  200.0      26.6581278537175
  300.0      41.6301714758351
  400.0      53.6627861853847
  500.0      63.6905840476763
  600.0      72.1501207066695
  700.0      79.4519363443125
  800.0      85.8563557122970
  900.0      91.5541498655363
 1000.0      96.6815666214183
 1100.0     101.3402691571150
 1200.0     105.6073390701569
 1300.0     109.5426523407594
 1400.0     113.1934599052096
 1500.0     116.5977103226848
 1600.0     119.7863224497262
 1700.0     122.7847624459394
 1800.0     125.6142909347952
 1900.0     128.2928007112747
 2000.0     130.8354986242256
 2100.0     133.2554345213367
 2200.0     135.5638660132299
 2300.0     137.7705677563670
 2400.0     139.8840707119522
 2500.0     141.9119069495537
 2600.0     143.8607705922681
 2700.0     145.7364910672465
 2800.0     147.5443992738788
 2900.0     149.2892022836868
 3000.0     150.9750714786436
 3100.0     152.6059732535121
 3200.0     154.1852682328824
 3300.0     155.7162243768665
 3400.0     157.2015707890639
 3500.0     158.6439739365251
 3600.0     160.0459662031613
 3700.0     161.4095376531529
 3800.0     162.7369966585931
 3900.0     164.0298768051575
 4000.0     165.2902219691964
 4100.0     166.5194625593080
 4200.0     167.7190207705676
 4300.0     168.8906632700433
 4400.0     170.0354621948367
 4500.0     171.1529756819735
 4600.0     172.2521864499262
 4700.0     173.3058473505006
 4800.0     174.4171939008144
 4900.0     175.2101250804211
 5000.0     175.3121394231067
 5100.0     175.7798725103961
 5200.0     176.8370820673026
 5300.0     177.8471646696636
 5400.0     178.8052925115310
 5500.0     179.7289841504547
 5600.0     180.6652640253580
 5700.0     181.5970346267246
 5800.0     182.4898423578748
 5900.0     183.3773893858755
 6000.0     184.3378703645669
# V = 182.655677 (a.u.^3)
    0.0      -3.7132868488948
  100.0      10.4973903051710
  200.0      26.3953045208480
  300.0      41.3095482275721
  400.0      53.3156644066529
  500.0      63.3294190486393
  600.0      71.7808998068263
  700.0      79.0776850901060
  800.0      85.4787907111271
  900.0      91.1743017645029
 1000.0      96.3000921541327
 1100.0     100.9576048248092
 1200.0     105.2237903270074
 1300.0     109.1584341920622
 1400.0     112.8087319262178
 1500.0     116.2125932895068
 1600.0     119.4009073098284
 1700.0     122.3991217570184
 1800.0     125.2284815646436
 1900.0     127.9068691361198
 2000.0     130.4494838256118
 2100.0     132.8693673805715
 2200.0     135.1777718470167
 2300.0     137.3844683230852
 2400.0     139.4979875854800
 2500.0     141.5258582464596
 2600.0     143.4747661279858
 2700.0     145.3505482549035
 2800.0     147.1585271832459
 2900.0     148.9034098989576
 3000.0     150.5893772034599
 3100.0     152.2203767288709
 3200.0     153.7997804529648
 3300.0     155.3308468132089
 3400.0     156.8163166374938
 3500.0     158.2588523846177
 3600.0     159.6609726533380
 3700.0     161.0246909633735
 3800.0     162.3522843013416
 3900.0     163.6453239609526
 4000.0     164.9058208502762
 4100.0     166.1352228995734
 4200.0     167.3349583554507
 4300.0     168.5067559537650
 4400.0     169.6517085490366
 4500.0     170.7695504053729
 4600.0     171.8684211549860
 4700.0     172.9241295844529
 4800.0     174.0288440681691
 4900.0     174.8472890975474
 5000.0     175.0493093779760
 5100.0     175.5738586182977
 5200.0     176.6224815612181
 5300.0     177.6299935015902
 5400.0     178.5873777334355
 5500.0     179.5092509470022
 5600.0     180.4442373878044
 5700.0     181.3741512701942
 5800.0     182.2654660695285
 5900.0     183.1516688531050
 6000.0     184.0980293526168
# V = 181.910636 (a.u.^3)
    0.0      -3.6679997928710
  100.0      10.3543019045138
  200.0      26.1357696745295
  300.0      40.9922608525393
  400.0      52.9717664267453
  500.0      62.9713855731827
  600.0      71.4147447219913
  700.0      78.7064531137672
  800.0      85.1042106561312
  900.0      90.7974121078603
 1000.0      95.9215547904005
 1100.0     100.5778597541074
 1200.0     104.8431452949432
 1300.0     108.7771059109492
 1400.0     112.4268811348843
 1500.0     115.8303415702915
 1600.0     119.0183462454085
 1700.0     122.0163243266548
 1800.0     124.8455049591094
 1900.0     127.5237600459628
 2000.0     130.0662813501575
 2100.0     132.4861025156038
 2200.0     134.7944699984571
 2300.0     137.0011512978941
 2400.0     139.1146768865177
 2500.0     141.1425719204236
 2600.0     143.0915141004095
 2700.0     144.9673477565917
 2800.0     146.7753872915584
 2900.0     148.5203395719000
 3000.0     150.2063944840958
 3100.0     151.8374814465736
 3200.0     153.4169834429606
 3300.0     154.9481495836247
 3400.0     156.4337321227567
 3500.0     157.8763895938697
 3600.0     159.2786271770144
 3700.0     160.6424811808073
 3800.0     161.9701980839117
 3900.0     163.2633858259201
 4000.0     164.5240232340713
 4100.0     165.7535752962301
 4200.0     166.9534761428910
 4300.0     168.1254175950523
 4400.0     169.2705126221267
 4500.0     170.3886670012931
 4600.0     171.4871996078247
 4700.0     172.5448940409377
 4800.0     173.6431453637957
 4900.0     174.4864198993262
 5000.0     174.7857637050996
 5100.0     175.3655561418118
 5200.0     176.4057678372938
 5300.0     177.4107471849189
 5400.0     178.3673647590593
 5500.0     179.2874089102402
 5600.0     180.2211026724108
 5700.0     181.1491818797644
 5800.0     182.0390034699258
 5900.0     182.9238672032633
 6000.0     183.8564385013735
# V = 181.165596 (a.u.^3)
    0.0      -3.6235561003988
  100.0      10.2133912568620
  200.0      25.8795629555423
  300.0      40.6783501008318
  400.0      52.6311318918816
  500.0      62.6165221214822
  600.0      71.0516931289911
  700.0      78.3382775340850
  800.0      84.7326522999408
  900.0      90.4235174134995
 1000.0      95.5459909049867
 1100.0     100.2010702413387
 1200.0     104.4654402379537
 1300.0     108.3987037635012
 1400.0     112.0479438248212
 1500.0     115.4509915054380
 1600.0     118.6386756588441
 1700.0     121.6364066308324
 1800.0     124.4653976771972
 1900.0     127.1435100902172
 2000.0     129.6859279434558
 2100.0     132.1056767731924
 2200.0     134.4139974196922
 2300.0     136.6206537416888
 2400.0     138.7341757869143
 2500.0     140.7620852560781
 2600.0     142.7110519098168
 2700.0     144.5869270886446
 2800.0     146.3950172328886
 2900.0     148.1400290556053
 3000.0     149.8261611911090
 3100.0     151.4573253972669
 3200.0     153.0369153132231
 3300.0     154.5681709196981
 3400.0     156.0538555961452
 3500.0     157.4966240345484
 3600.0     158.8989683658068
 3700.0     160.2629470147477
 3800.0     161.5907768375520
 3900.0     162.8841013474987
 4000.0     164.1448681870005
 4100.0     165.3745589325786
 4200.0     166.5746134295117
 4300.0     167.7466876099270
 4400.0     168.8919139509340
