# T (K)      fittedC_V_V (J K^-1 mol^-1)
# V= 188.616000 (a.u.^3)
    0.0       0.0000000000000
  100.0      16.3459123624073
  200.0      34.7855288856412
  300.0      40.0889964570280
  400.0      44.2684651456967
  500.0      45.9005135493154
  600.0      47.0892379782305
  700.0      47.7633354170328
  800.0      48.2402716788217
  900.0      48.5646443197536
 1000.0      48.8035930776765
 1100.0      48.9798954965546
 1200.0      49.1152648352434
 1300.0      49.2216992538356
 1400.0      49.3045618924243
 1500.0      49.3728230272446
 1600.0      49.4278042503967
 1700.0      49.4731155244803
 1800.0      49.5114342522948
 1900.0      49.5426147739170
 2000.0      49.5694297811901
 2100.0      49.5926618621577
 2200.0      49.6124773585467
 2300.0      49.6292487647002
 2400.0      49.6418094315966
 2500.0      49.6550548699861
 2600.0      49.6686281251620
 2700.0      49.6708700837979
 2800.0      49.6882544941722
 2900.0      49.6863976577756
 3000.0      49.6930607050991
 3100.0      49.7055357487467
 3200.0      49.6978897415593
 3300.0      49.7213618383369
 3400.0      49.6957773655864
 3500.0      49.7239035405638
 3600.0      49.7121574857726
 3700.0      49.7113935680770
 3800.0      49.7368851045029
 3900.0      49.6861876114517
 4000.0      49.7566629209871
 4100.0      49.6775000951034
 4200.0      49.7409628934859
 4300.0      49.7147958100122
 4400.0      49.7482322930837
 4500.0      49.4501371079180
 4600.0      50.8002477635498
 4700.0      45.6338828599195
 4800.0      64.9783400996697
 4900.0      -7.9447800313352
 5000.0     -58.9619052074833
 5100.0      62.9329427601948
 5200.0      52.5201591755473
 5300.0      55.5474841101108
 5400.0      47.3688989190560
 5500.0      54.7214349397229
 5600.0      50.1546139093233
 5700.0      56.7128609603743
 5800.0      47.0607610621493
 5900.0      57.9767908458146
 6000.0      69.2353507091938
# V= 187.870960 (a.u.^3)
    0.0       0.0000000000000
  100.0      16.3264755942616
  200.0      34.7664765334516
  300.0      40.0770876919850
  400.0      44.2603662881123
  500.0      45.8949862473595
  600.0      47.0852072518153
  700.0      47.7603260741264
  800.0      48.2379494178090
  900.0      48.5628306132304
 1000.0      48.8021433385745
 1100.0      48.9787402083704
 1200.0      49.1143383389010
 1300.0      49.2209523021916
 1400.0      49.3039774141464
 1500.0      49.3723654011539
 1600.0      49.4274603556496
 1700.0      49.4728737222835
 1800.0      49.5112773341087
 1900.0      49.5425442958996
 2000.0      49.5694336190683
 2100.0      49.5927315610631
 2200.0      49.6126085064304
 2300.0      49.6294400918087
 2400.0      49.6420756182415
 2500.0      49.6553709148064
 2600.0      49.6689718561283
 2700.0      49.6713280865158
 2800.0      49.6886835824516
 2900.0      49.6869514243984
 3000.0      49.6936647203694
 3100.0      49.7061167447478
 3200.0      49.6986233202984
 3300.0      49.7219900236440
 3400.0      49.6966740948045
 3500.0      49.7246537258006
 3600.0      49.7130587582017
 3700.0      49.7123746101181
 3800.0      49.7377038748645
 3900.0      49.6874875187942
 4000.0      49.7574394745542
 4100.0      49.6789736804917
 4200.0      49.7419572147562
 4300.0      49.7160820037643
 4400.0      49.7492592320855
 4500.0      49.4536093491377
 4600.0      50.7929993098348
 4700.0      45.6678893098942
 4800.0      64.8579888781622
 4900.0      -7.4829147662943
 5000.0     -58.0773924421718
 5100.0      62.8201724709314
 5200.0      52.5184709423392
 5300.0      55.5148965344830
 5400.0      47.3948466569538
 5500.0      54.6728537690239
 5600.0      50.1874835110521
 5700.0      56.6532854011692
 5800.0      47.1015750595718
 5900.0      57.9166931381608
 6000.0      69.0708967068133
# V= 187.125919 (a.u.^3)
    0.0       0.0000000000000
  100.0      16.3087270406795
  200.0      34.7490942472124
  300.0      40.0662286800744
  400.0      44.2529830669821
  500.0      45.8899482490262
  600.0      47.0815337322125
  700.0      47.7575837503955
  800.0      48.2358334632838
  900.0      48.5611783226739
 1000.0      48.8008228658245
 1100.0      48.9776882419841
 1200.0      49.1134950167002
 1300.0      49.2202727244259
 1400.0      49.3034460633335
 1500.0      49.3719497829033
 1600.0      49.4271485240526
 1700.0      49.4726550812334
 1800.0      49.5111361822191
 1900.0      49.5424820839728
 2000.0      49.5694392831697
 2100.0      49.5927973903685
 2200.0      49.6127304810363
 2300.0      49.6296170629373
 2400.0      49.6423210198425
 2500.0      49.6556618987606
 2600.0      49.6692881555421
 2700.0      49.6717488720992
 2800.0      49.6890779528988
 2900.0      49.6874598023746
 3000.0      49.6942190739334
 3100.0      49.7066500754027
 3200.0      49.6992961812916
 3300.0      49.7225665961821
 3400.0      49.6974961777501
 3500.0      49.7253419182988
 3600.0      49.7138851010534
 3700.0      49.7132739411499
 3800.0      49.7384549123404
 3900.0      49.6886784372239
 4000.0      49.7581520564213
 4100.0      49.6803234728381
 4200.0      49.7428689711900
 4300.0      49.7172606460254
 4400.0      49.7502009692515
 4500.0      49.4567861497280
 4600.0      50.7863775258911
 4700.0      45.6989744181775
 4800.0      64.7479917275122
 4900.0      -7.0607683044495
 5000.0     -57.2689293662925
 5100.0      62.7171368092629
 5200.0      52.5169407760684
 5300.0      55.4851297118644
 5400.0      47.4185874020728
 5500.0      54.6284831714258
 5600.0      50.2175296347207
 5700.0      56.5988609980967
 5800.0      47.1388943647790
 5900.0      57.8617833338585
 6000.0      68.9206095711096
# V= 186.380879 (a.u.^3)
    0.0       0.0000000000000
  100.0      16.2925346475256
  200.0      34.7332508227749
  300.0      40.0563367329495
  400.0      44.2462590489130
  500.0      45.8853609361038
  600.0      47.0781892127213
  700.0      47.7550873486667
  800.0      48.2339075056518
  900.0      48.5596746766360
 1000.0      48.7996214227080
 1100.0      48.9767314037961
 1200.0      49.1127282612177
 1300.0      49.2196551566239
 1400.0      49.3029635953811
 1500.0      49.3715728013938
 1600.0      49.4268661647911
 1700.0      49.4724577080530
 1800.0      49.5110094825311
 1900.0      49.5424274103520
 2000.0      49.5694465488085
 2100.0      49.5928595699267
 2200.0      49.6128439157489
 2300.0      49.6297807151412
 2400.0      49.6425471735403
 2500.0      49.6559296913342
 2600.0      49.6695790769885
 2700.0      49.6721352542714
 2800.0      49.6894402241341
 2900.0      49.6879262390094
 3000.0      49.6947275438577
 3100.0      49.7071393626725
 3200.0      49.6999129599059
 3300.0      49.7230954808956
 3400.0      49.6982493301066
 3500.0      49.7259728467088
 3600.0      49.7146422478854
 3700.0      49.7140978196191
 3800.0      49.7391433862808
 3900.0      49.6897687431497
 4000.0      49.7588055380844
 4100.0      49.6815589959227
 4200.0      49.7437044765190
 4300.0      49.7183399913280
 4400.0      49.7510640171072
 4500.0      49.4596903869723
 4600.0      50.7803334982749
 4700.0      45.7273654851756
 4800.0      64.6475424406614
 4900.0      -6.6752486250122
 5000.0     -56.5305962629004
 5100.0      62.6230765565076
 5200.0      52.5155558720383
 5300.0      55.4579633487909
 5400.0      47.4402920278892
 5500.0      54.5879941183032
 5600.0      50.2449719409854
 5700.0      56.5491856859186
 5800.0      47.1729904385791
 5900.0      57.8116568147379
 6000.0      68.7833855283477
# V= 185.635838 (a.u.^3)
    0.0       0.0000000000000
  100.0      16.2777663606646
  200.0      34.7188150559901
  300.0      40.0473291622636
  400.0      44.2401378005115
  500.0      45.8811856903801
  600.0      47.0751454866408
  700.0      47.7528157717665
  800.0      48.2321552353186
  900.0      48.5583069036685
 1000.0      48.7985287725066
 1100.0      48.9758615002066
 1200.0      49.1120314650303
 1300.0      49.2190942348712
 1400.0      49.3025257656848
 1500.0      49.3712310855267
 1600.0      49.4266106870505
 1700.0      49.4722797094653
 1800.0      49.5108959209501
 1900.0      49.5423795472529
 2000.0      49.5694551912986
 2100.0      49.5929183195906
 2200.0      49.6129494439531
 2300.0      49.6299320854756
 2400.0      49.6427556164757
 2500.0      49.6561761620126
 2600.0      49.6698466740525
 2700.0      49.6724900467558
 2800.0      49.6897730147778
 2900.0      49.6883541816080
 3000.0      49.6951939082089
 3100.0      49.7075882285183
 3200.0      49.7004782915085
 3300.0      49.7235806027287
 3400.0      49.6989392675575
 3500.0      49.7265512396814
 3600.0      49.7153359322553
 3700.0      49.7148525039722
 3800.0      49.7397744660364
 3900.0      49.6907668129805
 4000.0      49.7594047910392
 4100.0      49.6826897735259
 4200.0      49.7444700444746
 4300.0      49.7193282942043
 4400.0      49.7518548881782
 4500.0      49.4623449381541
 4600.0      50.7748183135423
 4700.0      45.7532898112944
 4800.0      64.5558348105515
 4900.0      -6.3232637071936
 5000.0     -55.8564734150500
 5100.0      62.5372324939838
 5200.0      52.5143034255522
 5300.0      55.4331771517986
 5400.0      47.4601314078792
 5500.0      54.5510575810306
 5600.0      50.2700300905027
 5700.0      56.5038573993968
 5800.0      47.2041347417801
 5900.0      57.7659089626296
 6000.0      68.6581208047926
# V= 184.890798 (a.u.^3)
    0.0       0.0000000000000
  100.0      16.2642901259612
  200.0      34.7056557427092
  300.0      40.0391232796703
  400.0      44.2345628883843
  500.0      45.8773838936433
  600.0      47.0723743472702
  700.0      47.7507479225215
  800.0      48.2305603426901
  900.0      48.5570622323233
 1000.0      48.7975346785019
 1100.0      48.9750703376157
 1200.0      49.1113980207146
 1300.0      49.2185845952533
 1400.0      49.3021283296403
 1500.0      49.3709212642032
 1600.0      49.4263795000162
 1700.0      49.4721191921933
 1800.0      49.5107941833812
 1900.0      49.5423377668909
 2000.0      49.5694649859545
 2100.0      49.5929738592132
 2200.0      49.6130476990336
 2300.0      49.6300722109957
 2400.0      49.6429478857896
 2500.0      49.6564031802812
 2600.0      49.6700930003189
 2700.0      49.6728160632757
 2800.0      49.6900789434502
 2900.0      49.6887470774756
 3000.0      49.6956219450535
 3100.0      49.7080002949013
 3200.0      49.7009968114665
 3300.0      49.7240258866261
 3400.0      49.6995717057863
 3500.0      49.7270818258669
 3600.0      49.7159718877209
 3700.0      49.7155442526559
 3800.0      49.7403533209573
 3900.0      49.6916810231249
 4000.0      49.7599546867816
 4100.0      49.6837253294280
 4200.0      49.7451719887886
 4300.0      49.7202338091866
 4400.0      49.7525800949902
 4500.0      49.4647726805569
 4600.0      50.7697830582495
 4700.0      45.7769746969401
 4800.0      64.4720626301240
 4900.0      -6.0017215302050
 5000.0     -55.2406411057960
 5100.0      62.4588454030101
 5200.0      52.5131706319135
 5300.0      55.4105508274234
 5400.0      47.4782764155190
 5500.0      54.5173445309829
 5600.0      50.2929237439288
 5700.0      56.4624740732930
 5800.0      47.2325987351904
 5900.0      57.7241351593640
 6000.0      68.5437116267093
# V= 184.145758 (a.u.^3)
    0.0       0.0000000000000
  100.0      16.2519738892799
  200.0      34.6936416787834
  300.0      40.0316363968228
  400.0      44.2294778791381
  500.0      45.8739169276816
  600.0      47.0698475879086
  700.0      47.7488627037580
  800.0      48.2291065181719
  900.0      48.5559278911520
 1000.0      48.7966289039755
 1100.0      48.9743497224236
 1200.0      49.1108213208474
 1300.0      49.2181208738556
 1400.0      49.3017670426430
 1500.0      49.3706399663246
 1600.0      49.4261700128736
 1700.0      49.4719742629599
 1800.0      49.5107029557297
 1900.0      49.5423013414815
 2000.0      49.5694757080901
 2100.0      49.5930264086475
 2200.0      49.6131393143750
 2300.0      49.6302021287566
 2400.0      49.6431255186226
 2500.0      49.6566126156256
 2600.0      49.6703201093727
 2700.0      49.6731161175544
 2800.0      49.6903606287717
 2900.0      49.6891083739173
 3000.0      49.6960154324583
 3100.0      49.7083791837825
 3200.0      49.7014731551471
 3300.0      49.7244352575321
 3400.0      49.7001523604763
 3500.0      49.7275693339161
 3600.0      49.7165558478396
 3700.0      49.7161793241168
 3800.0      49.7408851203940
 3900.0      49.6925197499920
 4000.0      49.7604600968075
 4100.0      49.6846751874091
 4200.0      49.7458166231926
 4300.0      49.7210647908073
 4400.0      49.7532461500686
 4500.0      49.4669964914641
 4600.0      50.7651788189527
 4700.0      45.7986474425189
 4800.0      64.3954196923206
 4900.0      -5.7075300732579
 5000.0     -54.6771796181930
 5100.0      62.3871560649047
 5200.0      52.5121446864256
 5300.0      55.3898640822011
 5400.0      47.4948979242850
 5500.0      54.4865259395345
 5600.0      50.3138725619202
 5700.0      56.4246336423691
 5800.0      47.2586538796180
 5900.0      57.6859307867715
 6000.0      68.4390542203628
# V= 183.400717 (a.u.^3)
    0.0       0.0000000000000
  100.0      16.2406855964855
  200.0      34.6826416600639
  300.0      40.0247858253745
  400.0      44.2248263393796
  500.0      45.8707461742829
  600.0      47.0675370018552
  700.0      47.7471390183027
  800.0      48.2277774521698
  900.0      48.5548911087066
 1000.0      48.7958012122088
 1100.0      48.9736914610307
 1200.0      49.1102947580053
 1300.0      49.2176977067635
 1400.0      49.3014376600887
 1500.0      49.3703838207919
 1600.0      49.4259796348080
 1700.0      49.4718430284882
 1800.0      49.5106209239008
 1900.0      49.5422695432403
 2000.0      49.5694871330198
 2100.0      49.5930761877462
 2200.0      49.6132249233620
 2300.0      49.6303228758134
 2400.0      49.6432900521157
 2500.0      49.6568063375313
 2600.0      49.6705300547989
 2700.0      49.6733930233153
 2800.0      49.6906206893626
 2900.0      49.6894415182384
 3000.0      49.6963781484898
 3100.0      49.7087285171230
 3200.0      49.7019119579173
 3300.0      49.7248126403911
 3400.0      49.7006869473111
 3500.0      49.7280184924794
 3600.0      49.7170935461692
 3700.0      49.7167639768014
 3800.0      49.7413750336969
 3900.0      49.6932913699904
 4000.0      49.7609258926128
 4100.0      49.6855488712496
 4200.0      49.7464102614180
 4300.0      49.7218294935986
 4400.0      49.7538595659392
 4500.0      49.4690392481591
 4600.0      50.7609566822079
 4700.0      45.8185353484368
 4800.0      64.3250997900830
 4900.0      -5.4375973155635
 5000.0     -54.1601692352957
 5100.0      62.3214052609861
 5200.0      52.5112127843917
 5300.0      55.3708966226678
 5400.0      47.5101668076534
 5500.0      54.4582727780601
 5600.0      50.3330962051332
 5700.0      56.3899340413869
 5800.0      47.2825716358712
 5900.0      57.6508912266825
 6000.0      68.3430448120181
# V= 182.655677 (a.u.^3)
    0.0       0.0000000000000
  100.0      16.2302931934427
  200.0      34.6725244824017
  300.0      40.0184888769789
  400.0      44.2205518357155
  500.0      45.8678330152353
  600.0      47.0654143824091
  700.0      47.7455557689820
  800.0      48.2265568350894
  900.0      48.5539391135388
 1000.0      48.7950413664834
 1100.0      48.9730873598370
 1200.0      49.1098117247652
 1300.0      49.2173097300625
 1400.0      49.3011359373729
 1500.0      49.3701494565064
 1600.0      49.4258057750049
 1700.0      49.4717235955009
 1800.0      49.5105467737997
 1900.0      49.5422416443827
 2000.0      49.5694990360575
 2100.0      49.5931234163624
 2200.0      49.6133051593794
 2300.0      49.6304354892214
 2400.0      49.6434430234095
 2500.0      49.6569862154836
 2600.0      49.6707248901824
 2700.0      49.6736495942817
 2800.0      49.6908617438431
 2900.0      49.6897499577439
 3000.0      49.6967138712146
 3100.0      49.7090519168839
 3200.0      49.7023178551442
 3300.0      49.7251619601475
 3400.0      49.7011811819740
 3500.0      49.7284340302074
 3600.0      49.7175907162674
 3700.0      49.7173044691563
 3800.0      49.7418282302164
 3900.0      49.6940042595291
 4000.0      49.7613569456933
 4100.0      49.6863559047297
 4200.0      49.7469592171966
 4300.0      49.7225361720928
 4400.0      49.7544268551274
 4500.0      49.4709238279255
 4600.0      50.7570677345715
 4700.0      45.8368657150999
 4800.0      64.2602967163528
 4900.0      -5.1888312363332
 5000.0     -53.6836902401587
 5100.0      62.2608337725726
 5200.0      52.5103621211153
 5300.0      55.3534281553594
 5400.0      47.5242539391003
 5500.0      54.4322560179343
 5600.0      50.3508143342242
 5700.0      56.3579732051080
 5800.0      47.3046234647582
 5900.0      57.6186118609274
 6000.0      68.2545796279401
# V= 181.910636 (a.u.^3)
    0.0       0.0000000000000
  100.0      16.2206646260160
  200.0      34.6631589416481
  300.0      40.0126628632894
  400.0      44.2165979347523
  500.0      45.8651388323270
  600.0      47.0634515228694
  700.0      47.7440918586225
  800.0      48.2254283573364
  900.0      48.5530591342004
 1000.0      48.7943391300810
 1100.0      48.9725292252427
 1200.0      49.1093656137035
 1300.0      49.2169515798381
 1400.0      49.3008576298911
 1500.0      49.3699335023693
 1600.0      49.4256458426496
 1700.0      49.4716140707213
 1800.0      49.5104791913318
 1900.0      49.5422169171243
 2000.0      49.5695111925176
 2100.0      49.5931683143490
 2200.0      49.6133806558119
 2300.0      49.6305410060357
 2400.0      49.6435859696448
 2500.0      49.6571541189681
 2600.0      49.6709066691082
 2700.0      49.6738886441771
 2800.0      49.6910864108336
 2900.0      49.6900371397391
 3000.0      49.6970263786994
 3100.0      49.7093530050262
 3200.0      49.7026954821950
 3300.0      49.7254871417458
 3400.0      49.7016407801485
 3500.0      49.7288206757508
 3600.0      49.7180530916917
 3700.0      49.7178070596281
 3800.0      49.7422498793028
 3900.0      49.6946667950168
 4000.0      49.7617581275448
 4100.0      49.6871058116296
 4200.0      49.7474698042600
 4300.0      49.7231930808223
 4400.0      49.7549545301588
 4500.0      49.4726731080466
 4600.0      50.7534630625995
 4700.0      45.8538658429144
 4800.0      64.2002042640715
 4900.0      -4.9581398147783
 5000.0     -53.2418229158367
 5100.0      62.2046823809826
 5200.0      52.5095798918997
 5300.0      55.3372383868118
 5400.0      47.5373301921021
 5500.0      54.4081466305317
 5600.0      50.3672466098496
 5700.0      56.3283490682944
 5800.0      47.3250808270870
 5900.0      57.5886880713368
 6000.0      68.1725548943939
# V= 181.165596 (a.u.^3)
    0.0       0.0000000000000
  100.0      16.2116678400703
  200.0      34.6544138336542
  300.0      40.0072250959592
  400.0      44.2129082030968
  500.0      45.8626250073460
  600.0      47.0616202165354
  700.0      47.7427261900507
  800.0      48.2243757093167
  900.0      48.5522383992432
 1000.0      48.7936842662830
 1100.0      48.9720088636481
 1200.0      49.1089498173972
 1300.0      49.2166178921759
 1400.0      49.3005984930391
 1500.0      49.3697325872818
 1600.0      49.4254972469275
 1700.0      49.4715125608722
 1800.0      49.5104168624022
 1900.0      49.5421946336805
 2000.0      49.5695233777141
 2100.0      49.5932111015589
 2200.0      49.6134520460441
 2300.0      49.6306404633114
 2400.0      49.6437204279625
 2500.0      49.6573119174702
 2600.0      49.6710774451612
 2700.0      49.6741129867246
 2800.0      49.6912973089545
 2900.0      49.6903065115291
 3000.0      49.6973194490106
 3100.0      49.7096354035111
 3200.0      49.7030494744369
 3300.0      49.7257921101303
 3400.0      49.7020714575181
 3500.0      49.7291831577600
 3600.0      49.7184864059998
 3700.0      49.7182780066635
 3800.0      49.7426451503065
 3900.0      49.6952873528623
 4000.0      49.7621343096633
 4100.0      49.6878081157297
 4200.0      49.7479483363396
 4300.0      49.7238084743194
 4400.0      49.7554491035591
 4500.0      49.4743099658060
