# V (a.u.^3)          Helmholtz Free Energy (Ry.)
# T= 0.000000 K
188.6160000000000      -0.8660356008378
187.8709595959596      -0.8669735688629
187.1259191919192      -0.8678905440915
186.3808787878788      -0.8687861027632
185.6358383838384      -0.8696598108217
184.8907979797980      -0.8705112236217
184.1457575757576      -0.8713398856264
183.4007171717172      -0.8721453300955
182.6556767676768      -0.8729270787624
181.9106363636364      -0.8736846415011
181.1655959595960      -0.8744175159819
180.4205555555556      -0.8751251873159
179.6755151515152      -0.8758071276868
178.9304747474748      -0.8764627959716
178.1854343434344      -0.8770916373474
177.4403939393939      -0.8776930828855
176.6953535353535      -0.8782665491316
175.9503131313132      -0.8788114376713
175.2052727272727      -0.8793271346813
174.4602323232323      -0.8798130104647
173.7151919191919      -0.8802684189703
172.9701515151515      -0.8806926972954
172.2251111111111      -0.8810851651711
171.4800707070707      -0.8814451244295
170.7350303030303      -0.8817718584522
169.9899898989899      -0.8820646315995
169.2449494949495      -0.8823226886191
168.4999090909091      -0.8825452540337
167.7548686868687      -0.8827315315071
167.0098282828283      -0.8828807031864
166.2647878787879      -0.8829919290221
165.5197474747475      -0.8830643460619
164.7747070707071      -0.8830970677196
164.0296666666667      -0.8830891830173
163.2846262626263      -0.8830397557990
162.5395858585859      -0.8829478239161
161.7945454545455      -0.8828123983814
161.0495050505050      -0.8826324624932
160.3044646464647      -0.8824069709246
159.5594242424243      -0.8821348487802
158.8143838383838      -0.8818149906163
158.0693434343434      -0.8814462594235
157.3243030303030      -0.8810274855714
156.5792626262626      -0.8805574657119
155.8342222222222      -0.8800349616408
155.0891818181818      -0.8794586991148
154.3441414141414      -0.8788273666229
153.5991010101010      -0.8781396141090
152.8540606060606      -0.8773940516456
152.1090202020202      -0.8765892480530
151.3639797979798      -0.8757237294660
150.6189393939394      -0.8747959778417
149.8738989898990      -0.8738044294078
149.1288585858586      -0.8727474730489
148.3838181818182      -0.8716234486271
147.6387777777778      -0.8704306452338
146.8937373737374      -0.8691672993703
146.1486969696970      -0.8678315930541
145.4036565656566      -0.8664216518454
144.6586161616162      -0.8649355427934
143.9135757575758      -0.8633712722951
143.1685353535354      -0.8617267838654
142.4234949494950      -0.8599999558123
141.6784545454545      -0.8581885988141
140.9334141414141      -0.8562904533920
140.1883737373738      -0.8543031872759
139.4433333333333      -0.8522243926551
138.6982929292929      -0.8500515833109
137.9532525252525      -0.8477821916234
137.2082121212121      -0.8454135654472
136.4631717171717      -0.8429429648502
135.7181313131313      -0.8403675587064
134.9730909090909      -0.8376844211384
134.2280505050505      -0.8348905277989
133.4830101010101      -0.8319827519863
132.7379696969697      -0.8289578605828
131.9929292929293      -0.8258125098080
131.2478888888889      -0.8225432407778
130.5028484848485      -0.8191464748585
129.7578080808081      -0.8156185088057
129.0127676767677      -0.8119555096758
128.2677272727273      -0.8081535094996
127.5226868686869      -0.8042083997040
126.7776464646465      -0.8001159252692
126.0326060606061      -0.7958716786068
125.2875656565657      -0.7914710931438
124.5425252525253      -0.7869094365967
123.7974848484849      -0.7821818039184
123.0524444444444      -0.7772831099002
122.3074040404040      -0.7722080814098
121.5623636363636      -0.7669512492452
120.8173232323232      -0.7615069395818
120.0722828282828      -0.7558692649918
119.3272424242424      -0.7500321150100
118.5822020202020      -0.7439891462209
117.8371616161616      -0.7377337718385
117.0921212121212      -0.7312591507516
116.3470808080808      -0.7245581760016
115.6020404040404      -0.7176234626595
114.8570000000000      -0.7104473350684
# T= 100.000000 K
188.6160000000000      -0.8663189924705
187.8709595959596      -0.8672523058433
187.1259191919192      -0.8681646825308
186.3808787878788      -0.8690556995562
185.6358383838384      -0.8699249236584
184.8907979797980      -0.8707719109995
184.1457575757576      -0.8715962068625
183.4007171717172      -0.8723973453391
182.6556767676768      -0.8731748490076
181.9106363636364      -0.8739282285994
181.1655959595960      -0.8746569826553
180.4205555555556      -0.8753605971698
179.6755151515152      -0.8760385452235
178.9304747474748      -0.8766902866036
178.1854343434344      -0.8773152674110
177.4403939393939      -0.8779129196547
176.6953535353535      -0.8784826608317
175.9503131313132      -0.8790238934933
175.2052727272727      -0.8795360047959
174.4602323232323      -0.8800183660368
173.7151919191919      -0.8804703321736
172.9701515151515      -0.8808912413268
172.2251111111111      -0.8812804142659
171.4800707070707      -0.8816371538759
170.7350303030303      -0.8819607446070
169.9899898989899      -0.8822504519027
169.2449494949495      -0.8825055216097
168.4999090909091      -0.8827251793650
167.7548686868687      -0.8829086299620
167.0098282828283      -0.8830550566936
166.2647878787879      -0.8831636206715
165.5197474747475      -0.8832334601203
164.7747070707071      -0.8832636896471
164.0296666666667      -0.8832533994829
163.2846262626263      -0.8832016546967
162.5395858585859      -0.8831074943808
161.7945454545455      -0.8829699308055
161.0495050505050      -0.8827879485420
160.3044646464647      -0.8825605035528
159.5594242424243      -0.8822865222479
158.8143838383838      -0.8819649005046
158.0693434343434      -0.8815945026509
157.3243030303030      -0.8811741604093
156.5792626262626      -0.8807026718004
155.8342222222222      -0.8801788000043
155.0891818181818      -0.8796012721773
154.3441414141414      -0.8789687782229
153.5991010101010      -0.8782799695151
152.8540606060606      -0.8775334575702
152.1090202020202      -0.8767278126676
151.3639797979798      -0.8758615624145
150.6189393939394      -0.8749331902540
149.8738989898990      -0.8739411339133
149.1288585858586      -0.8728837837890
148.3838181818182      -0.8717594812670
147.6387777777778      -0.8705665169742
146.8937373737374      -0.8693031289582
146.1486969696970      -0.8679675007927
145.4036565656566      -0.8665577596037
144.6586161616162      -0.8650719740139
143.9135757575758      -0.8635081520018
143.1685353535354      -0.8618642386698
142.4234949494950      -0.8601381139188
141.6784545454545      -0.8583275900236
140.9334141414141      -0.8564304091046
140.1883737373738      -0.8544442404922
139.4433333333333      -0.8523666779754
138.6982929292929      -0.8501952369330
137.9532525252525      -0.8479273513385
137.2082121212121      -0.8455603706340
136.4631717171717      -0.8430915564661
135.7181313131313      -0.8405180792773
134.9730909090909      -0.8378370147451
134.2280505050505      -0.8350453400615
133.4830101010101      -0.8321399300451
132.7379696969697      -0.8291175530761
131.9929292929293      -0.8259748668467
131.2478888888889      -0.8227084139164
130.5028484848485      -0.8193146170619
129.7578080808081      -0.8157897744117
129.0127676767677      -0.8121300543531
128.2677272727273      -0.8083314902013
127.5226868686869      -0.8043899746152
126.7776464646465      -0.8003012537493
126.0326060606061      -0.7960609211256
125.2875656565657      -0.7916644112114
124.5425252525253      -0.7871069926857
123.7974848484849      -0.7823837613793
123.0524444444444      -0.7774896328686
122.3074040404040      -0.7724193347046
121.5623636363636      -0.7671673982577
120.8173232323232      -0.7617281501550
120.0722828282828      -0.7560957032890
119.3272424242424      -0.7502639473717
118.5822020202020      -0.7442265390095
117.8371616161616      -0.7379768912701
117.0921212121212      -0.7315081627136
116.3470808080808      -0.7248132458543
115.6020404040404      -0.7178847550229
114.8570000000000      -0.7107150135902
# T= 200.000000 K
188.6160000000000      -0.8678479921886
187.8709595959596      -0.8687638279589
187.1259191919192      -0.8696589282853
186.3808787878788      -0.8705328726494
185.6358383838384      -0.8713852302759
184.8907979797980      -0.8722155598393
184.1457575757576      -0.8730234091621
183.4007171717172      -0.8738083149023
182.6556767676768      -0.8745698022310
181.9106363636364      -0.8753073844993
181.1655959595960      -0.8760205628938
180.4205555555556      -0.8767088260809
179.6755151515152      -0.8773716498394
178.9304747474748      -0.8780084966798
178.1854343434344      -0.8786188154522
177.4403939393939      -0.8792020409392
176.6953535353535      -0.8797575934362
175.9503131313132      -0.8802848783171
175.2052727272727      -0.8807832855842
174.4602323232323      -0.8812521894039
173.7151919191919      -0.8816909476249
172.9701515151515      -0.8820989012811
172.2251111111111      -0.8824753740757
171.4800707070707      -0.8828196718478
170.7350303030303      -0.8831310820208
169.9899898989899      -0.8834088730298
169.2449494949495      -0.8836522937299
168.4999090909091      -0.8838605727828
167.7548686868687      -0.8840329180212
167.0098282828283      -0.8841685157907
166.2647878787879      -0.8842665302677
165.5197474747475      -0.8843261027520
164.7747070707071      -0.8843463509343
164.0296666666667      -0.8843263681362
163.2846262626263      -0.8842652225225
162.5395858585859      -0.8841619562838
161.7945454545455      -0.8840155847893
161.0495050505050      -0.8838250957076
160.3044646464647      -0.8835894480939
159.5594242424243      -0.8833075714440
158.8143838383838      -0.8829783647108
158.0693434343434      -0.8826006952848
157.3243030303030      -0.8821733979343
156.5792626262626      -0.8816952737056
155.8342222222222      -0.8811650887805
155.0891818181818      -0.8805815732888
154.3441414141414      -0.8799434200753
153.5991010101010      -0.8792492834180
152.8540606060606      -0.8784977776953
152.1090202020202      -0.8776874760013
151.3639797979798      -0.8768169087049
150.6189393939394      -0.8758845619522
149.8738989898990      -0.8748888761080
149.1288585858586      -0.8738282441343
148.3838181818182      -0.8727010099035
147.6387777777778      -0.8715054664417
146.8937373737374      -0.8702398541008
146.1486969696970      -0.8689023586548
145.4036565656566      -0.8674911093173
144.6586161616162      -0.8660041766755
143.9135757575758      -0.8644395705394
143.1685353535354      -0.8627952376984
142.4234949494950      -0.8610690595840
141.6784545454545      -0.8592588498334
140.9334141414141      -0.8573623517472
140.1883737373738      -0.8553772356396
139.4433333333333      -0.8533010960727
138.6982929292929      -0.8511314489707
137.9532525252525      -0.8488657286087
137.2082121212121      -0.8465012844678
136.4631717171717      -0.8440353779524
135.7181313131313      -0.8414651789609
134.9730909090909      -0.8387877623030
134.2280505050505      -0.8360001039566
133.4830101010101      -0.8330990771549
132.7379696969697      -0.8300814482956
131.9929292929293      -0.8269438726638
131.2478888888889      -0.8236828899575
130.5028484848485      -0.8202949196063
129.7578080808081      -0.8167762558730
129.0127676767677      -0.8131230627252
128.2677272727273      -0.8093313684661
127.5226868686869      -0.8053970601112
126.7776464646465      -0.8013158774974
126.0326060606061      -0.7970834071091
125.2875656565657      -0.7926950756081
124.5425252525253      -0.7881461430493
123.7974848484849      -0.7834316957652
123.0524444444444      -0.7785466389023
122.3074040404040      -0.7734856885883
121.5623636363636      -0.7682433637103
120.8173232323232      -0.7628139772831
120.0722828282828      -0.7571916273819
119.3272424242424      -0.7513701876179
118.5822020202020      -0.7453432971276
117.8371616161616      -0.7391043500499
117.0921212121212      -0.7326464844601
116.3470808080808      -0.7259625707298
115.6020404040404      -0.7190451992784
114.8570000000000      -0.7118866676812
# T= 300.000000 K
188.6160000000000      -0.8706378976845
187.8709595959596      -0.8715295149369
187.1259191919192      -0.8724006304884
186.3808787878788      -0.8732508266896
185.6358383838384      -0.8740796756657
184.8907979797980      -0.8748867390235
184.1457575757576      -0.8756715675491
183.4007171717172      -0.8764337008958
182.6556767676768      -0.8771726672609
181.9106363636364      -0.8778879830530
181.1655959595960      -0.8785791525472
180.4205555555556      -0.8792456675290
179.6755151515152      -0.8798870069266
178.9304747474748      -0.8805026364300
178.1854343434344      -0.8810920080984
177.4403939393939      -0.8816545599527
176.6953535353535      -0.8821897155556
175.9503131313132      -0.8826968835761
175.2052727272727      -0.8831754573396
174.4602323232323      -0.8836248143620
173.7151919191919      -0.8840443158684
172.9701515151515      -0.8844333062938
172.2251111111111      -0.8847911127673
171.4800707070707      -0.8851170445775
170.7350303030303      -0.8854103926195
169.9899898989899      -0.8856704288217
169.2449494949495      -0.8858964055521
168.4999090909091      -0.8860875550045
167.7548686868687      -0.8862430885605
167.0098282828283      -0.8863621961306
166.2647878787879      -0.8864440454696
165.5197474747475      -0.8864877814681
164.7747070707071      -0.8864925254174
164.0296666666667      -0.8864573742480
163.2846262626263      -0.8863813997388
162.5395858585859      -0.8862636476981
161.7945454545455      -0.8861031371130
161.0495050505050      -0.8858988592677
160.3044646464647      -0.8856497768280
159.5594242424243      -0.8853548228913
158.8143838383838      -0.8850129000003
158.0693434343434      -0.8846228791193
157.3243030303030      -0.8841835985709
156.5792626262626      -0.8836938629315
155.8342222222222      -0.8831524418844
155.0891818181818      -0.8825580690279
154.3441414141414      -0.8819094406366
153.5991010101010      -0.8812052143742
152.8540606060606      -0.8804440079552
152.1090202020202      -0.8796243977534
151.3639797979798      -0.8787449173552
150.6189393939394      -0.8778040560540
149.8738989898990      -0.8768002572846
149.1288585858586      -0.8757319169940
148.3838181818182      -0.8745973819454
147.6387777777778      -0.8733949479529
146.8937373737374      -0.8721228580439
146.1486969696970      -0.8707793005451
145.4036565656566      -0.8693624070887
144.6586161616162      -0.8678702505356
143.9135757575758      -0.8663008428113
143.1685353535354      -0.8646521326501
142.4234949494950      -0.8629220032438
141.6784545454545      -0.8611082697896
140.9334141414141      -0.8592086769334
140.1883737373738      -0.8572208961021
139.4433333333333      -0.8551425227205
138.6982929292929      -0.8529710733067
137.9532525252525      -0.8507039824406
137.2082121212121      -0.8483385995976
136.4631717171717      -0.8458721858432
135.7181313131313      -0.8433019103794
134.9730909090909      -0.8406248469365
134.2280505050505      -0.8378379700027
133.4830101010101      -0.8349381508819
132.7379696969697      -0.8319221535722
131.9929292929293      -0.8287866304562
131.2478888888889      -0.8255281177910
130.5028484848485      -0.8221430309906
129.7578080808081      -0.8186276596872
129.0127676767677      -0.8149781625617
128.2677272727273      -0.8111905619290
127.5226868686869      -0.8072607380682
126.7776464646465      -0.8031844232798
126.0326060606061      -0.7989571956597
125.2875656565657      -0.7945744725708
124.5425252525253      -0.7900315037978
123.7974848484849      -0.7853233643678
123.0524444444444      -0.7804449470167
122.3074040404040      -0.7753909542836
121.5623636363636      -0.7701558902105
120.8173232323232      -0.7647340516273
120.0722828282828      -0.7591195189960
119.3272424242424      -0.7533061467911
118.5822020202020      -0.7472875533889
117.8371616161616      -0.7410571104364
117.0921212121212      -0.7346079316712
116.3470808080808      -0.7279328611589
115.6020404040404      -0.7210244609147
114.8570000000000      -0.7138749978719
# T= 400.000000 K
188.6160000000000      -0.8744681254005
187.8709595959596      -0.8753325278773
187.1259191919192      -0.8761766579488
186.3808787878788      -0.8770001008092
185.6358383838384      -0.8778024314588
184.8907979797980      -0.8785832144118
184.1457575757576      -0.8793420033935
183.4007171717172      -0.8800783410283
182.6556767676768      -0.8807917585165
181.9106363636364      -0.8814817753010
181.1655959595960      -0.8821478987230
180.4205555555556      -0.8827896236650
179.6755151515152      -0.8834064321833
178.9304747474748      -0.8839977931271
178.1854343434344      -0.8845631617445
177.4403939393939      -0.8851019792758
176.6953535353535      -0.8856136725325
175.9503131313132      -0.8860976534612
175.2052727272727      -0.8865533186935
174.4602323232323      -0.8869800490798
173.7151919191919      -0.8873772092061
172.9701515151515      -0.8877441468953
172.2251111111111      -0.8880801926898
171.4800707070707      -0.8883846593162
170.7350303030303      -0.8886568411312
169.9899898989899      -0.8888960135473
169.2449494949495      -0.8891014324386
168.4999090909091      -0.8892723335242
167.7548686868687      -0.8894079317305
167.0098282828283      -0.8895074205296
166.2647878787879      -0.8895699712535
165.5197474747475      -0.8895947323840
164.7747070707071      -0.8895808288155
164.0296666666667      -0.8895273610911
163.2846262626263      -0.8894334046105
162.5395858585859      -0.8892980088075
161.7945454545455      -0.8891201962982
161.0495050505050      -0.8888989619951
160.3044646464647      -0.8886332721899
159.5594242424243      -0.8883220635995
158.8143838383838      -0.8879642423771
158.0693434343434      -0.8875586830843
157.3243030303030      -0.8871042276241
156.5792626262626      -0.8865996841327
155.8342222222222      -0.8860438258277
155.0891818181818      -0.8854353898118
154.3441414141414      -0.8847730758291
153.5991010101010      -0.8840555449725
152.8540606060606      -0.8832814183396
152.1090202020202      -0.8824492756357
151.3639797979798      -0.8815576537198
150.6189393939394      -0.8806050450928
149.8738989898990      -0.8795898963243
149.1288585858586      -0.8785106064156
148.3838181818182      -0.8773655250956
147.6387777777778      -0.8761529510463
146.8937373737374      -0.8748711300561
146.1486969696970      -0.8735182530955
145.4036565656566      -0.8720924543131
144.6586161616162      -0.8705918089469
143.9135757575758      -0.8690143311486
143.1685353535354      -0.8673579717146
142.4234949494950      -0.8656206157214
141.6784545454545      -0.8638000800588
140.9334141414141      -0.8618941108576
140.1883737373738      -0.8599003808058
139.4433333333333      -0.8578164863481
138.6982929292929      -0.8556399447623
137.9532525252525      -0.8533681911084
137.2082121212121      -0.8509985750414
136.4631717171717      -0.8485283574833
135.7181313131313      -0.8459547071460
134.9730909090909      -0.8432746968978
134.2280505050505      -0.8404852999662
133.4830101010101      -0.8375833859671
132.7379696969697      -0.8345657167533
131.9929292929293      -0.8314289420719
131.2478888888889      -0.8281695950209
130.5028484848485      -0.8247840872940
129.7578080808081      -0.8212687042042
129.0127676767677      -0.8176195994721
128.2677272727273      -0.8138327897680
127.5226868686869      -0.8099041489946
126.7776464646465      -0.8058294022952
126.0326060606061      -0.8016041197741
125.2875656565657      -0.7972237099123
124.5425252525253      -0.7926834126620
123.7974848484849      -0.7879782922034
123.0524444444444      -0.7831032293432
122.3074040404040      -0.7780529135359
121.5623636363636      -0.7728218345076
120.8173232323232      -0.7674042734570
120.0722828282828      -0.7617942938134
119.3272424242424      -0.7559857315230
118.5822020202020      -0.7499721848386
117.8371616161616      -0.7437470035823
