# T (K)     Gibbs free energy (Ry.)
# P= 0.000000 GPa
    0.0      -0.8830990094987
  100.0      -0.8832649518711
  200.0      -0.8843463519499
  300.0      -0.8864953728189
  400.0      -0.8895951340997
  500.0      -0.8935048081300
  600.0      -0.8981062969864
  700.0      -0.9033071604191
  800.0      -0.9090352787558
  900.0      -0.9152336268766
 1000.0      -0.9218563589381
 1100.0      -0.9288660135504
 1200.0      -0.9362315398405
 1300.0      -0.9439268733486
 1400.0      -0.9519299004981
 1500.0      -0.9602216916251
 1600.0      -0.9687859199711
 1700.0      -0.9776084193268
 1800.0      -0.9866768417803
 1900.0      -0.9959803888556
 2000.0      -1.0055096009308
 2100.0      -1.0152561889288
 2200.0      -1.0252129017761
 2300.0      -1.0353734213286
 2400.0      -1.0457322801427
 2500.0      -1.0562847980520
 2600.0      -1.0670270370848
 2700.0      -1.0779557704287
 2800.0      -1.0890684622919
 2900.0      -1.1003632754743
 3000.0      -1.1118390678316
 3100.0      -1.1234954342101
 3200.0      -1.1353327556580
 3300.0      -1.1473522375019
 3400.0      -1.1595558728478
 3500.0      -1.1719463008254
 3600.0      -1.1845269328059
 3700.0      -1.1973018794478
 3800.0      -1.2102760409179
 3900.0      -1.2234551740868
 4000.0      -1.2368457674664
 4100.0      -1.2504554484140
 4200.0      -1.2642925086974
 4300.0      -1.2783666065534
 4400.0      -1.2926883657030
 4500.0      -1.3072693632182
 4600.0      -1.3221228976533
 4700.0      -1.3372635341093
 4800.0      -1.3527066215497
 4900.0      -1.3684710466582
 5000.0      -1.3838029143362
 5100.0      -1.3981550719045
 5200.0      -1.4124507033384
 5300.0      -1.4268660335583
 5400.0      -1.4413861541698
 5500.0      -1.4559681683622
 5600.0      -1.4706549083694
 5700.0      -1.4854067948227
 5800.0      -1.5002713280228
 5900.0      -1.5151889526878
 6000.0      -1.5302743412394
# P= 1.000000 GPa
    0.0      -0.8719445720001
  100.0      -0.8721076130934
  200.0      -0.8731771475363
  300.0      -0.8753071600384
  400.0      -0.8783833790974
  500.0      -0.8822666153163
  600.0      -0.8868395881096
  700.0      -0.8920102625479
  800.0      -0.8977067198161
  900.0      -0.9038720296242
 1000.0      -0.9104603807761
 1100.0      -0.9174343084463
 1200.0      -0.9247627338665
 1300.0      -0.9324195462602
 1400.0      -0.9403825703357
 1500.0      -0.9486328017855
 1600.0      -0.9571538269127
 1700.0      -0.9659313803086
 1800.0      -0.9749530020425
 1900.0      -0.9842077678272
 2000.0      -0.9936860773531
 2100.0      -1.0033794840672
 2200.0      -1.0132805604299
 2300.0      -1.0233827903014
 2400.0      -1.0336804837139
 2500.0      -1.0441687098179
 2600.0      -1.0548432457845
 2700.0      -1.0657005407280
 2800.0      -1.0767376901822
 2900.0      -1.0879524299529
 3000.0      -1.0993431283749
 3100.0      -1.1109088086127
 3200.0      -1.1226491797158
 3300.0      -1.1345646699996
 3400.0      -1.1466565201097
 3500.0      -1.1589267669317
 3600.0      -1.1713782171118
 3700.0      -1.1840143430761
 3800.0      -1.1968393585059
 3900.0      -1.2098582766149
 4000.0      -1.2230768145701
 4100.0      -1.2365017298921
 4200.0      -1.2501404389240
 4300.0      -1.2640016006250
 4400.0      -1.2780947960604
 4500.0      -1.2924305199640
 4600.0      -1.3070208360423
 4700.0      -1.3218790063618
 4800.0      -1.3370190864598
 4900.0      -1.3524582789441
 5000.0      -1.3675514905162
 5100.0      -1.3818231708565
 5200.0      -1.3960604855315
 5300.0      -1.4104146373284
 5400.0      -1.4248726782598
 5500.0      -1.4393970792298
 5600.0      -1.4540248056919
 5700.0      -1.4687213098123
 5800.0      -1.4835278406181
 5900.0      -1.4983920419209
 6000.0      -1.5134146835708
# P= 2.000000 GPa
    0.0      -0.8608511469776
  100.0      -0.8610114930076
  200.0      -0.8620699155310
  300.0      -0.8641819615390
  400.0      -0.8672358289712
  500.0      -0.8710939170211
  600.0      -0.8756397473500
  700.0      -0.8807816854443
  800.0      -0.8864480143327
  900.0      -0.8925819018614
 1000.0      -0.8991375752599
 1100.0      -0.9060775728642
 1200.0      -0.9133707946035
 1300.0      -0.9209910905549
 1400.0      -0.9289162328489
 1500.0      -0.9371271526906
 1600.0      -0.9456073603763
 1700.0      -0.9543425037183
 1800.0      -0.9633200250239
 1900.0      -0.9725288903205
 2000.0      -0.9819593768557
 2100.0      -0.9916029013912
 2200.0      -1.0014518837294
 2300.0      -1.0114996370987
 2400.0      -1.0217402805457
 2500.0      -1.0321686690282
 2600.0      -1.0427803378571
 2700.0      -1.0535714622014
 2800.0      -1.0645388276736
 2900.0      -1.0756798143453
 3000.0      -1.0869923846692
 3100.0      -1.0984750924340
 3200.0      -1.1101270991347
 3300.0      -1.1219481962440
 3400.0      -1.1339388680486
 3500.0      -1.1461003120511
 3600.0      -1.1584345874633
 3700.0      -1.1709445433875
 3800.0      -1.1836337430518
 3900.0      -1.1965064953496
 4000.0      -1.2095677844361
 4100.0      -1.2228235443024
 4200.0      -1.2362803577884
 4300.0      -1.2499459366846
 4400.0      -1.2638288710212
 4500.0      -1.2779386240551
 4600.0      -1.2922860871549
 4700.0      -1.3068832830879
 4800.0      -1.3217430305115
 4900.0      -1.3368809395884
 5000.0      -1.3517495722949
 5100.0      -1.3659384354419
 5200.0      -1.3801129163217
 5300.0      -1.3944017488261
 5400.0      -1.4087937406534
 5500.0      -1.4232562179886
 5600.0      -1.4378208243711
 5700.0      -1.4524576238291
 5800.0      -1.4672021467914
 5900.0      -1.4820086212230
 6000.0      -1.4969650779549
# P= 3.000000 GPa
    0.0      -0.8498170920427
  100.0      -0.8499749373400
  200.0      -0.8510229567098
  300.0      -0.8531180164013
  400.0      -0.8561506523483
  500.0      -0.8599848049877
  600.0      -0.8645047831490
  700.0      -0.8696193479517
  800.0      -0.8752569851739
  900.0      -0.8813609624155
 1000.0      -0.8878855502410
 1100.0      -0.8947932945595
 1200.0      -0.9020530796246
 1300.0      -0.9096387239188
 1400.0      -0.9175279541348
 1500.0      -0.9257016452345
 1600.0      -0.9341432415621
 1700.0      -0.9428383151338
 1800.0      -0.9517742224474
 1900.0      -0.9609398334950
 2000.0      -0.9703253186686
 2100.0      -0.9799219756953
 2200.0      -0.9897220917931
 2300.0      -0.9997188324956
 2400.0      -1.0099061521710
 2500.0      -1.0202787218539
 2600.0      -1.0308318700960
 2700.0      -1.0415615392814
 2800.0      -1.0524642530591
 2900.0      -1.0635370920750
 3000.0      -1.0747776804941
 3100.0      -1.0861841826400
 3200.0      -1.0977553098922
 3300.0      -1.1094903344662
 3400.0      -1.1213891300607
 3500.0      -1.1334521835368
 3600.0      -1.1456807031425
 3700.0      -1.1580766523549
 3800.0      -1.1706428645306
 3900.0      -1.1833829782048
 4000.0      -1.1963012820980
 4100.0      -1.2094029317307
 4200.0      -1.2226937176047
 4300.0      -1.2361804550843
 4400.0      -1.2498707936306
 4500.0      -1.2637732149132
 4600.0      -1.2778974989114
 4700.0      -1.2922544913389
 4800.0      -1.3068558296536
 4900.0      -1.3217156203968
 5000.0      -1.3363735645191
 5100.0      -1.3504779986636
 5200.0      -1.3645859446988
 5300.0      -1.3788060787961
 5400.0      -1.3931287734881
 5500.0      -1.4075257265531
 5600.0      -1.4220237781324
 5700.0      -1.4365972055084
 5800.0      -1.4512763296425
 5900.0      -1.4660213781071
 6000.0      -1.4809087540666
# P= 4.000000 GPa
    0.0      -0.8388408427599
  100.0      -0.8389963706253
  200.0      -0.8400346539415
  300.0      -0.8421136505722
  400.0      -0.8451261099152
  500.0      -0.8489374690343
  600.0      -0.8534328083982
  700.0      -0.8585212809550
  800.0      -0.8641315744447
  900.0      -0.8702070588916
 1000.0      -0.8767020512878
 1100.0      -0.8835791091864
 1200.0      -0.8908071071284
 1300.0      -0.8983598369074
 1400.0      -0.9062149867842
 1500.0      -0.9143533834375
 1600.0      -0.9227584129952
 1700.0      -0.9314155809735
 1800.0      -0.9403121689455
 1900.0      -0.9494369627222
 2000.0      -0.9587800389003
 2100.0      -0.9683325911225
 2200.0      -0.9780867910878
 2300.0      -0.9880356760009
 2400.0      -0.9981730576192
 2500.0      -1.0084934483070
 2600.0      -1.0189919989959
 2700.0      -1.0296644529846
 2800.0      -1.0405071111370
 2900.0      -1.0515168009343
 3000.0      -1.0626908616733
 3100.0      -1.0740271325565
 3200.0      -1.0855239515456
 3300.0      -1.0971801632894
 3400.0      -1.1089951431585
 3500.0      -1.1209688035851
 3600.0      -1.1331016697804
 3700.0      -1.1453949025607
 3800.0      -1.1578503931638
 3900.0      -1.1704708730941
 4000.0      -1.1832599125888
 4100.0      -1.1962219322625
 4200.0      -1.2093619706876
 4300.0      -1.2226859961745
 4400.0      -1.2362007669300
 4500.0      -1.2499138319660
 4600.0      -1.2638339192290
 4700.0      -1.2779707581643
 4800.0      -1.2923348598323
 4900.0      -1.3069389131622
 5000.0      -1.3213998720323
 5100.0      -1.3354189935151
 5200.0      -1.3494575196203
 5300.0      -1.3636063379718
 5400.0      -1.3778572088859
 5500.0      -1.3921857467963
 5600.0      -1.4066144806925
 5700.0      -1.4211215234486
 5800.0      -1.4357324722591
 5900.0      -1.4504130000287
 6000.0      -1.4652289415703
# P= 5.000000 GPa
    0.0      -0.8279209074452
  100.0      -0.8280742909278
  200.0      -0.8291034666300
  300.0      -0.8311672706492
  400.0      -0.8341605480286
  500.0      -0.8379501897843
  600.0      -0.8424220330407
  700.0      -0.8474856184040
  800.0      -0.8530698348049
  900.0      -0.8591181569281
 1000.0      -0.8655849503339
 1100.0      -0.8724327889620
 1200.0      -0.8796305411434
 1300.0      -0.8871519776782
 1400.0      -0.8949747544099
 1500.0      -0.9030796553933
 1600.0      -0.9114500165705
 1700.0      -0.9200712851691
 1800.0      -0.9289306763315
 1900.0      -0.9380169019997
 2000.0      -0.9473199566899
 2100.0      -0.9568309427616
 2200.0      -0.9665419306970
 2300.0      -0.9764458457567
 2400.0      -0.9865363757463
 2500.0      -0.9968078955635
 2600.0      -1.0072554028451
 2700.0      -1.0178744697924
 2800.0      -1.0286612066486
 2900.0      -1.0396122254177
 3000.0      -1.0507246244564
 3100.0      -1.0619959691101
 3200.0      -1.0734242850376
 3300.0      -1.0850080623534
 3400.0      -1.0967462652400
 3500.0      -1.1086383373204
 3600.0      -1.1206842504615
 3700.0      -1.1328845224924
 3800.0      -1.1452402829408
 3900.0      -1.1577533506628
 4000.0      -1.1704262809419
 4100.0      -1.1832625859836
 4200.0      -1.1962665693509
 4300.0      -1.2094434003057
 4400.0      -1.2227989939631
 4500.0      -1.2363400146389
 4600.0      -1.2500741960223
 4700.0      -1.2640102106132
 4800.0      -1.2781574969954
 4900.0      -1.2925274096842
 5000.0      -1.3068048996860
 5100.0      -1.3207385530013
 5200.0      -1.3347055900521
 5300.0      -1.3487812370954
 5400.0      -1.3629584789878
 5500.0      -1.3772164206155
 5600.0      -1.3915737457812
 5700.0      -1.4060120462800
 5800.0      -1.4205526577182
 5900.0      -1.4351661744824
 6000.0      -1.4499088701425
# P= 6.000000 GPa
    0.0      -0.8170558623831
  100.0      -0.8172072650016
  200.0      -0.8182279256112
  300.0      -0.8202773584245
  400.0      -0.8232523927147
  500.0      -0.8270213323088
  600.0      -0.8314707568401
  700.0      -0.8365105898071
  800.0      -0.8420699210618
  900.0      -0.8480923308973
 1000.0      -0.8545322363310
 1100.0      -0.8613522306826
 1200.0      -0.8685211799843
 1300.0      -0.8760128390119
 1400.0      -0.8838048353948
 1500.0      -0.8918779172779
 1600.0      -0.9002153762373
 1700.0      -0.9088026079273
 1800.0      -0.9176267697893
 1900.0      -0.9266765083945
 2000.0      -0.9359417455906
 2100.0      -0.9454135037413
 2200.0      -0.9550837647322
 2300.0      -0.9649453557611
 2400.0      -0.9749918563202
 2500.0      -0.9852175217317
 2600.0      -0.9956172167930
 2700.0      -1.0061863659903
 2800.0      -1.0169209156617
 2900.0      -1.0278172933740
 3000.0      -1.0388723922689
 3100.0      -1.0500835458938
 3200.0      -1.0614485168529
 3300.0      -1.0729654982995
 3400.0      -1.0846331132116
 3500.0      -1.0964504182561
 3600.0      -1.1084169327547
 3700.0      -1.1205326533132
 3800.0      -1.1327980982365
 3900.0      -1.1452143620364
 4000.0      -1.1577831504303
 4100.0      -1.1705069384201
 4200.0      -1.1833889659088
 4300.0      -1.1964335078288
 4400.0      -1.2096456777731
 4500.0      -1.2230313023565
 4600.0      -1.2365971772080
 4700.0      -1.2503509757346
 4800.0      -1.2643011170873
 4900.0      -1.2784577017640
 5000.0      -1.2925650523292
 5100.0      -1.3064138101165
 5200.0      -1.3203081049659
 5300.0      -1.3343094869056
 5400.0      -1.3484120159313
 5500.0      -1.3625978898958
 5600.0      -1.3768823871104
 5700.0      -1.3912502426115
 5800.0      -1.4057189691130
 5900.0      -1.4202635889405
 6000.0      -1.4349317694496
# P= 7.000000 GPa
    0.0      -0.8062443473944
  100.0      -0.8063939238085
  200.0      -0.8074066284673
  300.0      -0.8094424658864
  400.0      -0.8124001441390
  500.0      -0.8161493403020
  600.0      -0.8205773629107
  700.0      -0.8255945134605
  800.0      -0.8311300823270
  900.0      -0.8371277560021
 1000.0      -0.8435420056472
 1100.0      -0.8503354461430
 1200.0      -0.8574769454940
 1300.0      -0.8649402454970
 1400.0      -0.8727029508749
 1500.0      -0.8807457783953
 1600.0      -0.8890519806267
 1700.0      -0.8976069087312
 1800.0      -0.9063976683505
 1900.0      -0.9154128485743
 2000.0      -0.9246423077106
 2100.0      -0.9340769970894
 2200.0      -0.9437088204752
 2300.0      -0.9535305192593
 2400.0      -0.9635355782075
 2500.0      -0.9737181481040
 2600.0      -0.9840729780452
 2700.0      -0.9945953644612
 2800.0      -1.0052811121221
 2900.0      -1.0161264899629
 3000.0      -1.0271282153809
 3100.0      -1.0382834243731
 3200.0      -1.0495896567212
 3300.0      -1.0610448554113
 3400.0      -1.0726473573161
 3500.0      -1.0843958976300
 3600.0      -1.0962896220401
 3700.0      -1.1083281001029
 3800.0      -1.1205113542623
 3900.0      -1.1328398966069
 4000.0      -1.1453147577761
 4100.0      -1.1579375942794
 4200.0      -1.1707106888820
 4300.0      -1.1836371594421
 4400.0      -1.1967210214031
 4500.0      -1.2099672345441
 4600.0      -1.2233817107027
 4700.0      -1.2369711805785
 4800.0      -1.2507430960551
 4900.0      -1.2647063811982
 5000.0      -1.2786567348100
 5100.0      -1.2924218978632
 5200.0      -1.3062430133273
 5300.0      -1.3201697981392
 5400.0      -1.3341972518468
 5500.0      -1.3483102965241
 5600.0      -1.3625212184048
 5700.0      -1.3768175810583
 5800.0      -1.3912134895265
 5900.0      -1.4056879308854
 6000.0      -1.4202808691684
# P= 8.000000 GPa
    0.0      -0.7954850618211
  100.0      -0.7956329584289
  200.0      -0.7966382352263
  300.0      -0.7986612106300
  400.0      -0.8016023716830
  500.0      -0.8053327307539
  600.0      -0.8097403119836
  700.0      -0.8147357901520
  800.0      -0.8202486552801
  900.0      -0.8262227008543
 1000.0      -0.8326124539658
 1100.0      -0.8393805536092
 1200.0      -0.8464958727599
 1300.0      -0.8539321436214
 1400.0      -0.8616669522976
 1500.0      -0.8696809879051
 1600.0      -0.8779574699073
 1700.0      -0.8864817093200
 1800.0      -0.8952407666384
 1900.0      -0.9042231803453
 2000.0      -0.9134187517169
 2100.0      -0.9228183699981
 2200.0      -0.9324138702072
 2300.0      -0.9421979176336
 2400.0      -0.9521639138873
 2500.0      -0.9623059184062
 2600.0      -0.9726185792696
 2700.0      -0.9830970812892
 2800.0      -0.9937371063544
 2900.0      -1.0045347863690
 3000.0      -1.0154866874929
 3100.0      -1.0265897764728
 3200.0      -1.0378414031173
 3300.0      -1.0492392982956
 3400.0      -1.0607815577486
 3500.0      -1.0724666470890
 3600.0      -1.0842934008156
 3700.0      -1.0962610361057
 3800.0      -1.1083691683365
 3900.0      -1.1206178365237
 4000.0      -1.1330075279784
 4100.0      -1.1455392469916
 4200.0      -1.1582145236788
 4300.0      -1.1710355555318
 4400.0      -1.1840052571897
 4500.0      -1.1971273506268
 4600.0      -1.2104066444228
 4700.0      -1.2238489521942
 4800.0      -1.2374608098451
 4900.0      -1.2512500397862
 5000.0      -1.2650563519771
 5100.0      -1.2787399492403
 5200.0      -1.2924882641044
 5300.0      -1.3063408815327
 5400.0      -1.3202936188713
 5500.0      -1.3343337823924
 5600.0      -1.3484710533858
 5700.0      -1.3626955302371
 5800.0      -1.3770183020461
 5900.0      -1.3914218877985
 6000.0      -1.4059393989711
# P= 9.000000 GPa
    0.0      -0.7847767608407
  100.0      -0.7849231163274
  200.0      -0.7859214644089
  300.0      -0.7879322716446
  400.0      -0.7908577094334
  500.0      -0.7945700890298
  600.0      -0.7989581371539
  700.0      -0.8039328973197
  800.0      -0.8094240580200
  900.0      -0.8153755205072
 1000.0      -0.8217418690709
 1100.0      -0.8284857694025
 1200.0      -0.8355761015898
 1300.0      -0.8429865919438
 1400.0      -0.8506948107392
 1500.0      -0.8586814240234
 1600.0      -0.8669296218813
 1700.0      -0.8754246801839
 1800.0      -0.8841536198752
 1900.0      -0.8931049337743
 2000.0      -0.9022683736868
 2100.0      -0.9116347733266
 2200.0      -0.9211959065598
 2300.0      -0.9309443722968
 2400.0      -0.9408734986274
 2500.0      -0.9509772642968
 2600.0      -0.9612502290538
 2700.0      -0.9716874803662
 2800.0      -0.9822845930536
 2900.0      -0.9930375799903
 3000.0      -1.0039428765554
 3100.0      -1.0149973038068
 3200.0      -1.0261980487597
 3300.0      -1.0375426613164
 3400.0      -1.0490290325874
 3500.0      -1.0606554008751
 3600.0      -1.0724203396049
 3700.0      -1.0843227720618
 3800.0      -1.0963619773343
 3900.0      -1.1085376058909
 4000.0      -1.1208497029891
 4100.0      -1.1332987469429
 4200.0      -1.1458856677993
 4300.0      -1.1586119367874
 4400.0      -1.1714796116079
 4500.0      -1.1844913940906
 4600.0      -1.1976508336655
 4700.0      -1.2109624176309
 4800.0      -1.2244316344034
 4900.0      -1.2380652693261
 5000.0      -1.2517403086793
 5100.0      -1.2653450972472
 5200.0      -1.2790218062651
 5300.0      -1.2928014478246
 5400.0      -1.3066805491395
 5500.0      -1.3206484893880
 5600.0      -1.3347127057735
 5700.0      -1.3488655587632
 5800.0      -1.3631154897575
 5900.0      -1.3774481471567
 6000.0      -1.3918905885289
# P= 10.000000 GPa
    0.0      -0.7741182520709
  100.0      -0.7742631979121
  200.0      -0.7752550894046
  300.0      -0.7772543854462
  400.0      -0.7801648520397
  500.0      -0.7838600643813
  600.0      -0.7882294390667
  700.0      -0.7931843838670
  800.0      -0.7986547844405
  900.0      -0.8045846503839
 1000.0      -0.8109286242897
 1100.0      -0.8176494006806
 1200.0      -0.8247158688478
 1300.0      -0.8321017522070
 1400.0      -0.8397846079516
 1500.0      -0.8477450829347
 1600.0      -0.8559663410489
 1700.0      -0.8644336280721
 1800.0      -0.8731339290029
 1900.0      -0.8820556971543
 2000.0      -0.8911886397927
 2100.0      -0.9005235413175
 2200.0      -0.9100521222095
 2300.0      -0.9197669216588
 2400.0      -0.9296612031010
 2500.0      -0.9397288746998
 2600.0      -0.9499644180147
 2700.0      -0.9603628350344
 2800.0      -0.9709196072046
 2900.0      -0.9816306438246
 3000.0      -0.9924922666219
 3100.0      -1.0035011705513
 3200.0      -1.0146544024590
 3300.0      -1.0259493570677
 3400.0      -1.0373837508418
 3500.0      -1.0489556290522
 3600.0      -1.0606633447512
 3700.0      -1.0725055746362
 3800.0      -1.0844813170634
 3900.0      -1.0965899007865
 4000.0      -1.1088310082759
 4100.0      -1.1212046885560
 4200.0      -1.1337113878513
 4300.0      -1.1463519964437
 4400.0      -1.1591278949035
 4500.0      -1.1720409894722
 4600.0      -1.1850938555330
 4700.0      -1.1982898046637
