# T (K)               Helmholtz Free Energy (Ry.)
# V= 188.6160000000000
    0.00      -0.8660356008378
  100.00      -0.8663189924705
  200.00      -0.8678479921886
  300.00      -0.8706378976845
  400.00      -0.8744681254005
  500.00      -0.8791468937772
  600.00      -0.8845322640849
  700.00      -0.8905195908677
  800.00      -0.8970298174572
  900.00      -0.9040015745826
 1000.00      -0.9113860305609
 1100.00      -0.9191435032595
 1200.00      -0.9272411484417
 1300.00      -0.9356513626785
 1400.00      -0.9443506382759
 1500.00      -0.9533187178311
 1600.00      -0.9625379762756
 1700.00      -0.9719929390284
 1800.00      -0.9816699143122
 1900.00      -0.9915567048689
 2000.00      -1.0016423743013
 2100.00      -1.0119170646860
 2200.00      -1.0223718457652
 2300.00      -1.0329985891364
 2400.00      -1.0437898636813
 2500.00      -1.0547388484093
 2600.00      -1.0658392682398
 2700.00      -1.0770853271968
 2800.00      -1.0884716449440
 2900.00      -1.0999932396854
 3000.00      -1.1116454503878
 3100.00      -1.1234239354819
 3200.00      -1.1353246389607
 3300.00      -1.1473437409770
 3400.00      -1.1594776750100
 3500.00      -1.1717230426793
 3600.00      -1.1840766855301
 3700.00      -1.1965355877206
 3800.00      -1.2090969063211
 3900.00      -1.2217579622134
 4000.00      -1.2345161617466
 4100.00      -1.2473691237819
 4200.00      -1.2603144795881
 4300.00      -1.2733500729796
 4400.00      -1.2864738025751
 4500.00      -1.2996836113260
 4600.00      -1.3129776315727
 4700.00      -1.3263540430263
 4800.00      -1.3398109985872
 4900.00      -1.3533469977369
 5000.00      -1.3668769758799
 5100.00      -1.3803606592646
 5200.00      -1.3939048819201
 5300.00      -1.4075293978975
 5400.00      -1.4212311261889
 5500.00      -1.4350033652507
 5600.00      -1.4488486647399
 5700.00      -1.4627647361452
 5800.00      -1.4767530335518
 5900.00      -1.4908076681069
 6000.00      -1.5049371841409
# V= 187.8709595959596
    0.00      -0.8669735688629
  100.00      -0.8672523058433
  200.00      -0.8687638279589
  300.00      -0.8715295149369
  400.00      -0.8753325278773
  500.00      -0.8799826450624
  600.00      -0.8853385888212
  700.00      -0.8912960294402
  800.00      -0.8977760781490
  900.00      -0.9047174625288
 1000.00      -0.9120714109343
 1100.00      -0.9197982798800
 1200.00      -0.9278652517237
 1300.00      -0.9362447416587
 1400.00      -0.9449132553363
 1500.00      -0.9538505455790
 1600.00      -0.9630389949116
 1700.00      -0.9724631347011
 1800.00      -0.9821092779250
 1900.00      -0.9919652310656
 2000.00      -1.0020200609400
 2100.00      -1.0122639122162
 2200.00      -1.0226878567164
 2300.00      -1.0332837677910
 2400.00      -1.0440442159448
 2500.00      -1.0549623818310
 2600.00      -1.0660319914132
 2700.00      -1.0772472495458
 2800.00      -1.0886027774226
 2900.00      -1.1000935933458
 3000.00      -1.1117150378781
 3100.00      -1.1234627701680
 3200.00      -1.1353327341644
 3300.00      -1.1473211112831
 3400.00      -1.1594243345549
 3500.00      -1.1716390078654
 3600.00      -1.1839619717829
 3700.00      -1.1963902116736
 3800.00      -1.2089208851099
 3900.00      -1.2215513122413
 4000.00      -1.2342789025399
 4100.00      -1.2471012718420
 4200.00      -1.2600160558291
 4300.00      -1.2730210954072
 4400.00      -1.2861142898717
 4500.00      -1.2992935859048
 4600.00      -1.3125571129714
 4700.00      -1.3259030503409
 4800.00      -1.3393295574186
 4900.00      -1.3528351216208
 5000.00      -1.3663405088887
 5100.00      -1.3798082187819
 5200.00      -1.3933374439378
 5300.00      -1.4069466370870
 5400.00      -1.4206328216048
 5500.00      -1.4343895654639
 5600.00      -1.4482190991158
 5700.00      -1.4621194518419
 5800.00      -1.4760917126501
 5900.00      -1.4901303947599
 6000.00      -1.5042432842879
# V= 187.1259191919192
    0.00      -0.8678905440915
  100.00      -0.8681646825308
  200.00      -0.8696589282853
  300.00      -0.8724006304884
  400.00      -0.8761766579488
  500.00      -0.8807983459336
  600.00      -0.8861250796449
  700.00      -0.8920528467227
  800.00      -0.8985029273515
  900.00      -0.9054141466405
 1000.00      -0.9127377934096
 1100.00      -0.9204342631130
 1200.00      -0.9284707648902
 1300.00      -0.9368197326888
 1400.00      -0.9454576856009
 1500.00      -0.9543643867360
 1600.00      -0.9635222262596
 1700.00      -0.9729157415202
 1800.00      -0.9825312502725
 1900.00      -0.9923565627572
 2000.00      -1.0023807490136
 2100.00      -1.0125939563083
 2200.00      -1.0229872585486
 2300.00      -1.0335525308418
 2400.00      -1.0442823453148
 2500.00      -1.0551698842562
 2600.00      -1.0662088746740
 2700.00      -1.0773935222556
 2800.00      -1.0887184497065
 2900.00      -1.1001786754398
 3000.00      -1.1117695415894
 3100.00      -1.1234867080146
 3200.00      -1.1353261186319
 3300.00      -1.1472839560979
 3400.00      -1.1593566530100
 3500.00      -1.1715408154759
 3600.00      -1.1838332831116
 3700.00      -1.1962310424686
 3800.00      -1.2087312516124
 3900.00      -1.2213312299794
 4000.00      -1.2340283900971
 4100.00      -1.2468203448442
 4200.00      -1.2597047342206
 4300.00      -1.2726793962884
 4400.00      -1.2857422310028
 4500.00      -1.2988911887002
 4600.00      -1.3121243960304
 4700.00      -1.3254400318283
 4800.00      -1.3388362618691
 4900.00      -1.3523115617581
 5000.00      -1.3657924062741
 5100.00      -1.3792440084717
 5200.00      -1.3927580773002
 5300.00      -1.4063517930223
 5400.00      -1.4200222811869
 5500.00      -1.4337633728396
 5600.00      -1.4475769857249
 5700.00      -1.4614614621978
 5800.00      -1.4754175326512
 5900.00      -1.4894401044628
 6000.00      -1.5035362212303
# V= 186.3808787878788
    0.00      -0.8687861027632
  100.00      -0.8690556995562
  200.00      -0.8705328726494
  300.00      -0.8732508266896
  400.00      -0.8770001008092
  500.00      -0.8815935843448
  600.00      -0.8868913272030
  700.00      -0.8927896360087
  800.00      -0.8992099609740
  900.00      -0.9060912254224
 1000.00      -0.9133847790738
 1100.00      -0.9210510566198
 1200.00      -0.9290572941729
 1300.00      -0.9373759445691
 1400.00      -0.9459835404390
 1500.00      -0.9548598552416
 1600.00      -0.9639872868318
 1700.00      -0.9733503785744
 1800.00      -0.9829354530239
 1900.00      -0.9927303241977
 2000.00      -1.0027240653662
 2100.00      -1.0129068264012
 2200.00      -1.0232696833017
 2300.00      -1.0338045129354
 2400.00      -1.0445038890502
 2500.00      -1.0553609955617
 2600.00      -1.0663695605236
 2700.00      -1.0775237904581
 2800.00      -1.0888183095639
 2900.00      -1.1002481363784
 3000.00      -1.1118086145816
 3100.00      -1.1234954047364
 3200.00      -1.1353044507391
 3300.00      -1.1472319364648
 3400.00      -1.1592742940920
 3500.00      -1.1714281319070
 3600.00      -1.1836902885979
 3700.00      -1.1960577518787
 3800.00      -1.2085276802985
 3900.00      -1.2210973926009
 4000.00      -1.2337643042997
 4100.00      -1.2465260253846
 4200.00      -1.2593802000779
 4300.00      -1.2723246636637
 4400.00      -1.2853573167396
 4500.00      -1.2984761132187
 4600.00      -1.3116791769965
 4700.00      -1.3249646864814
 4800.00      -1.3383308136810
 4900.00      -1.3517760226473
 5000.00      -1.3652323738425
 5100.00      -1.3786677333078
 5200.00      -1.3921664859115
 5300.00      -1.4057445686520
 5400.00      -1.4193992070144
 5500.00      -1.4331244885983
 5600.00      -1.4469220250082
 5700.00      -1.4607904669174
 5800.00      -1.4747301926221
 5900.00      -1.4887364956696
 6000.00      -1.5028156929806
# V= 185.6358383838384
    0.00      -0.8696598108217
  100.00      -0.8699249236584
  200.00      -0.8713852302759
  300.00      -0.8740796756657
  400.00      -0.8778024314588
  500.00      -0.8823679380876
  600.00      -0.8876369120097
  700.00      -0.8935059804883
  800.00      -0.8998967648506
  900.00      -0.9067482873324
 1000.00      -0.9140119589956
 1100.00      -0.9216482540720
 1200.00      -0.9296244358420
 1300.00      -0.9379129761664
 1400.00      -0.9464904213146
 1500.00      -0.9553365551587
 1600.00      -0.9644337832930
 1700.00      -0.9737666551336
 1800.00      -0.9833214980589
 1900.00      -0.9930861298815
 2000.00      -1.0030496271121
 2100.00      -1.0132021422349
 2200.00      -1.0235347533468
 2300.00      -1.0340393390800
 2400.00      -1.0447084748027
 2500.00      -1.0555353460493
 2600.00      -1.0665136819198
 2700.00      -1.0776376897737
 2800.00      -1.0889019952848
 2900.00      -1.1003016171273
 3000.00      -1.1118319005025
 3100.00      -1.1234885066703
 3200.00      -1.1352673795183
 3300.00      -1.1471647041175
 3400.00      -1.1591769122433
 3500.00      -1.1713006143157
 3600.00      -1.1835326481199
 3700.00      -1.1958700025096
 3800.00      -1.2083098365078
 3900.00      -1.2208494681855
 4000.00      -1.2334863159736
 4100.00      -1.2462179870415
 4200.00      -1.2590421297372
 4300.00      -1.2719565766330
 4400.00      -1.2849592289519
 4500.00      -1.2980480441051
 4600.00      -1.3112211432955
 4700.00      -1.3244767045121
 4800.00      -1.3378129058571
 4900.00      -1.3512282000892
 5000.00      -1.3646601087431
 5100.00      -1.3780790896468
 5200.00      -1.3915623651003
 5300.00      -1.4051246583930
 5400.00      -1.4187632926807
 5500.00      -1.4324726055220
 5600.00      -1.4462539090175
 5700.00      -1.4601061573665
 5800.00      -1.4740293833447
 5900.00      -1.4880192586035
 6000.00      -1.5020813893764
# V= 184.8907979797980
    0.00      -0.8705112236217
  100.00      -0.8707719109995
  200.00      -0.8722155598393
  300.00      -0.8748867390235
  400.00      -0.8785832144118
  500.00      -0.8831209744980
  600.00      -0.8883614041539
  700.00      -0.8942014529550
  800.00      -0.9005629144479
  900.00      -0.9073849104891
 1000.00      -0.9146189139324
 1100.00      -0.9222254388578
 1200.00      -0.9301717759123
 1300.00      -0.9384304161208
 1400.00      -0.9469779194930
 1500.00      -0.9557940803800
 1600.00      -0.9648613121664
 1700.00      -0.9741641703556
 1800.00      -0.9836889871741
 1900.00      -0.9934235842495
 2000.00      -1.0033570413417
 2100.00      -1.0134795135554
 2200.00      -1.0237820810917
 2300.00      -1.0342566243517
 2400.00      -1.0448957203232
 2500.00      -1.0556925561509
 2600.00      -1.0666408619826
 2700.00      -1.0777348460175
 2800.00      -1.0889691353858
 2900.00      -1.1003387489121
 3000.00      -1.1118390332934
 3100.00      -1.1234656504799
 3200.00      -1.1352145443626
 3300.00      -1.1470819011859
 3400.00      -1.1590641523371
 3500.00      -1.1711579103254
 3600.00      -1.1833600120583
 3700.00      -1.1956674475057
 3800.00      -1.2080773761552
 3900.00      -1.2205871154257
 4000.00      -1.2331940865946
 4100.00      -1.2458958940811
 4200.00      -1.2586901902613
 4300.00      -1.2715748050624
 4400.00      -1.2845476403152
 4500.00      -1.2976066568498
 4600.00      -1.3107499732388
 4700.00      -1.3239757670595
 4800.00      -1.3372822223685
 4900.00      -1.3506677808947
 5000.00      -1.3640752991778
 5100.00      -1.3774777649410
 5200.00      -1.3909454013358
 5300.00      -1.4044917478498
 5400.00      -1.4181142230155
 5500.00      -1.4318074076802
 5600.00      -1.4455723211444
 5700.00      -1.4594082163063
 5800.00      -1.4733147870525
 5900.00      -1.4872880749981
 6000.00      -1.5013329918258
# V= 184.1457575757576
    0.00      -0.8713398856264
  100.00      -0.8715962068625
  200.00      -0.8730234091621
  300.00      -0.8756715675491
  400.00      -0.8793420033935
  500.00      -0.8838522501542
  600.00      -0.8890643629963
  700.00      -0.8948756155035
  800.00      -0.9012079745619
  900.00      -0.9080006623689
 1000.00      -0.9152052140272
 1100.00      -0.9227821837792
 1200.00      -0.9306988898401
 1300.00      -0.9389278425416
 1400.00      -0.9474456157374
 1500.00      -0.9562320143247
 1600.00      -0.9652694595301
 1700.00      -0.9745425129817
 1800.00      -0.9840375117792
 1900.00      -0.9937422813847
 2000.00      -1.0036459048177
 2100.00      -1.0137385398109
 2200.00      -1.0240112686766
 2300.00      -1.0344559735895
 2400.00      -1.0450652331563
 2500.00      -1.0558322361242
 2600.00      -1.0667507136894
 2700.00      -1.0778148748939
 2800.00      -1.0890193483057
 2900.00      -1.1003591529132
 3000.00      -1.1118296368838
 3100.00      -1.1234264628511
 3200.00      -1.1351455747217
 3300.00      -1.1469831598907
 3400.00      -1.1589356493728
 3500.00      -1.1709996577211
 3600.00      -1.1831720209909
 3700.00      -1.1954497302452
 3800.00      -1.2078299454263
 3900.00      -1.2203099833215
 4000.00      -1.2328872679841
 4100.00      -1.2455594011537
 4200.00      -1.2583240391354
 4300.00      -1.2711790092791
 4400.00      -1.2841222140059
 4500.00      -1.2971516174842
 4600.00      -1.3102653357196
 4700.00      -1.3234615458854
 4800.00      -1.3367384378507
 4900.00      -1.3500944425813
 5000.00      -1.3634776240985
 5100.00      -1.3768634374397
 5200.00      -1.3903152719332
 5300.00      -1.4038455135236
 5400.00      -1.4174516737985
 5500.00      -1.4311285701468
 5600.00      -1.4448769358415
 5700.00      -1.4586963176175
 5800.00      -1.4725860771586
 5900.00      -1.4865426178294
 6000.00      -1.5005701730421
# V= 183.4007171717172
    0.00      -0.8721453300955
  100.00      -0.8723973453391
  200.00      -0.8738083149023
  300.00      -0.8764337008958
  400.00      -0.8800783410283
  500.00      -0.8845613105642
  600.00      -0.8897453368573
  700.00      -0.8955280192168
  800.00      -0.9018314990054
  900.00      -0.9085950994926
 1000.00      -0.9157704184956
 1100.00      -0.9233180507382
 1200.00      -0.9312053422099
 1300.00      -0.9394048226945
 1400.00      -0.9478930799952
 1500.00      -0.9566499296240
 1600.00      -0.9656578007030
 1700.00      -0.9749012610229
 1800.00      -0.9843666525821
 1900.00      -0.9940418046979
 2000.00      -1.0039158036598
 2100.00      -1.0139788098366
 2200.00      -1.0242219076590
 2300.00      -1.0346369810804
 2400.00      -1.0452166103257
 2500.00      -1.0559539857366
 2600.00      -1.0668428395595
 2700.00      -1.0778773816814
 2800.00      -1.0890522420898
 2900.00      -1.1003624399505
 3000.00      -1.1118033248760
 3100.00      -1.1233705601761
 3200.00      -1.1350600897856
 3300.00      -1.1468681022274
 3400.00      -1.1587910281595
 3500.00      -1.1708254841331
 3600.00      -1.1829683053771
 3700.00      -1.1952164840239
 3800.00      -1.2075671804610
 3900.00      -1.2200177108649
 4000.00      -1.2325655019933
 4100.00      -1.2452081529772
 4200.00      -1.2579433239513
 4300.00      -1.2707688397562
 4400.00      -1.2836826033857
 4500.00      -1.2966825822655
 4600.00      -1.3097668898975
 4700.00      -1.3229337030591
 4800.00      -1.3361812172886
 4900.00      -1.3495078530580
 5000.00      -1.3628667528941
 5100.00      -1.3762357758797
 5200.00      -1.3896716447472
 5300.00      -1.4031856225101
 5400.00      -1.4167753114605
 5500.00      -1.4304357587060
 5600.00      -1.4441674183320
 5700.00      -1.4579701260142
 5800.00      -1.4718429179742
 5900.00      -1.4857825510381
 6000.00      -1.4997925967708
# V= 182.6556767676768
    0.00      -0.8729270787624
  100.00      -0.8731748490076
  200.00      -0.8745698022310
  300.00      -0.8771726672609
  400.00      -0.8807917585165
  500.00      -0.8852476898426
  600.00      -0.8904038626933
  700.00      -0.8961582038430
  800.00      -0.9024330302843
  900.00      -0.9091677671024
 1000.00      -0.9163140753021
 1100.00      -0.9238325904133
 1200.00      -0.9316906864104
 1300.00      -0.9398609126766
 1400.00      -0.9483198710732
 1500.00      -0.9570473877969
 1600.00      -0.9660258999198
 1700.00      -0.9752399814342
 1800.00      -0.9846759792638
 1900.00      -0.9943217266021
 2000.00      -1.0041663130192
 2100.00      -1.0141999015289
 2200.00      -1.0244135786880
 2300.00      -1.0347992302331
 2400.00      -1.0453494380076
 2500.00      -1.0560573939397
 2600.00      -1.0669168313272
 2700.00      -1.0779219609056
 2800.00      -1.0890674140629
 2900.00      -1.1003482101563
 3000.00      -1.1117597002175
 3100.00      -1.1232975482262
 3200.00      -1.1349576981577
 3300.00      -1.1467363396395
 3400.00      -1.1586299029890
 3500.00      -1.1706350067095
 3600.00      -1.1827484852298
 3700.00      -1.1949673317276
 3800.00      -1.2072887070261
 3900.00      -1.2197099267120
 4000.00      -1.2322284201751
 4100.00      -1.2448417840099
 4200.00      -1.2575476820798
 4300.00      -1.2703439367852
 4400.00      -1.2832284516748
 4500.00      -1.2961991973492
 4600.00      -1.3092542848715
 4700.00      -1.3223918906308
 4800.00      -1.3356102156897
 4900.00      -1.3489076702988
 5000.00      -1.3622423450654
 5100.00      -1.3755944391636
 5200.00      -1.3890141778556
 5300.00      -1.4025117321867
 5400.00      -1.4160847927749
 5500.00      -1.4297286295475
 5600.00      -1.4434434243089
 5700.00      -1.4572292967478
 5800.00      -1.4710849644166
 5900.00      -1.4850075292415
 6000.00      -1.4989999175058
# V= 181.9106363636364
    0.00      -0.8736846415011
  100.00      -0.8739282285994
  200.00      -0.8753073844993
  300.00      -0.8778879830530
  400.00      -0.8814817753010
  500.00      -0.8859109103775
  600.00      -0.8910394657638
  700.00      -0.8967656974614
  800.00      -0.9030120992639
  900.00      -0.9097181988272
 1000.00      -0.9168357208252
 1100.00      -0.9243253419248
 1200.00      -0.9321544642989
 1300.00      -0.9402956570815
 1400.00      -0.9487255363021
 1500.00      -0.9574239389138
 1600.00      -0.9663733099949
 1700.00      -0.9755582297787
 1800.00      -0.9849650501418
 1900.00      -0.9945816081754
 2000.00      -1.0043969967417
 2100.00      -1.0144013815084
 2200.00      -1.0245858511662
 2300.00      -1.0349422932404
 2400.00      -1.0454632911928
 2500.00      -1.0561420385303
 2600.00      -1.0669722696041
 2700.00      -1.0779481960007
 2800.00      -1.0890644504905
 2900.00      -1.1003160526360
 3000.00      -1.1116983548626
 3100.00      -1.1232070218127
 3200.00      -1.1348379975150
 3300.00      -1.1465874726785
 3400.00      -1.1584518772962
 3500.00      -1.1704278317772
 3600.00      -1.1825121697763
 3700.00      -1.1947018854929
 3800.00      -1.2069941401759
 3900.00      -1.2193862488435
 4000.00      -1.2318756434448
 4100.00      -1.2444599181105
 4200.00      -1.2571367403309
 4300.00      -1.2699039301361
 4400.00      -1.2827593916114
 4500.00      -1.2957010984496
 4600.00      -1.3087271593399
 4700.00      -1.3218357502912
 4800.00      -1.3350250777442
 4900.00      -1.3482935420031
 5000.00      -1.3616040498870
 5100.00      -1.3749390760262
 5200.00      -1.3883425192293
 5300.00      -1.4018234898874
 5400.00      -1.4153797645369
 5500.00      -1.4290068289505
 5600.00      -1.4427045996239
 5700.00      -1.4564734752997
 5800.00      -1.4703118617058
 5900.00      -1.4842171974357
 6000.00      -1.4981917801957
# V= 181.1655959595960
    0.00      -0.8744175159819
  100.00      -0.8746569826553
  200.00      -0.8760205628938
  300.00      -0.8785791525472
  400.00      -0.8821478987230
  500.00      -0.8865504824851
  600.00      -0.8916516592854
  700.00      -0.8973500161372
  800.00      -0.9035682248230
  900.00      -0.9102459163369
 1000.00      -0.9173348795117
 1100.00      -0.9247958324877
 1200.00      -0.9325962058551
 1300.00      -0.9407085886522
 1400.00      -0.9491096111894
 1500.00      -0.9577791212498
 1600.00      -0.9666995719746
 1700.00      -0.9758555498796
 1800.00      -0.9852334118219
 1900.00      -0.9948209988131
 2000.00      -1.0046074070189
 2100.00      -1.0145828047707
 2200.00      -1.0247382829009
 2300.00      -1.0350657307295
 2400.00      -1.0455577333370
