# T (K)               Helmholtz Free Energy (Ry.)
# V= 188.6160000000000
    0.00      -0.8662509989114
  100.00      -0.8665321006643
  200.00      -0.8680486338517
  300.00      -0.8708207701434
  400.00      -0.8746309706345
  500.00      -0.8792886961435
  600.00      -0.8846524881786
  700.00      -0.8906179203328
  800.00      -0.8971060535329
  900.00      -0.9040555871807
 1000.00      -0.9114177374341
 1100.00      -0.9191528511418
 1200.00      -0.9272281093823
 1300.00      -0.9356159270928
 1400.00      -0.9442928088375
 1500.00      -0.9532385114694
 1600.00      -0.9624354184985
 1700.00      -0.9718680638990
 1800.00      -0.9815227636238
 1900.00      -0.9913873262198
 2000.00      -1.0014508225332
 2100.00      -1.0117034002362
 2200.00      -1.0221361328304
 2300.00      -1.0327408955065
 2400.00      -1.0435102621660
 2500.00      -1.0544374192969
 2600.00      -1.0655160934024
 2700.00      -1.0767404894234
 2800.00      -1.0881052381572
 2900.00      -1.0996053510895
 3000.00      -1.1112361813818
 3100.00      -1.1229933900025
 3200.00      -1.1348729161820
 3300.00      -1.1468709515248
 3400.00      -1.1589839172311
 3500.00      -1.1712084439750
 3600.00      -1.1835413540634
 3700.00      -1.1959796455626
 3800.00      -1.2085204781280
 3900.00      -1.2211611603159
 4000.00      -1.2338991381872
 4100.00      -1.2467319850450
 4200.00      -1.2596573921664
 4300.00      -1.2726731604130
 4400.00      -1.2857771926171
 4500.00      -1.2989674866568
 4600.00      -1.3122421291436
 4700.00      -1.3255992896566
 4800.00      -1.3390372154649
 4900.00      -1.3525542266882
 5000.00      -1.3661487118508
 5100.00      -1.3798191237899
 5200.00      -1.3935639758835
 5300.00      -1.4073818385678
 5400.00      -1.4212713361158
 5500.00      -1.4352311436546
 5600.00      -1.4492599843985
 5700.00      -1.4633566270788
 5800.00      -1.4775198835544
 5900.00      -1.4917486065854
 6000.00      -1.5060416877585
# V= 178.0210000000000
    0.00      -0.8771066881800
  100.00      -0.8773521594873
  200.00      -0.8787243470900
  300.00      -0.8812804998713
  400.00      -0.8848394668026
  500.00      -0.8892281918420
  600.00      -0.8943131289751
  700.00      -0.8999937545024
  800.00      -0.9061932358482
  900.00      -0.9128514983323
 1000.00      -0.9199205163871
 1100.00      -0.9273611296795
 1200.00      -0.9351408528841
 1300.00      -0.9432323345443
 1400.00      -0.9516122475648
 1500.00      -0.9602604731125
 1600.00      -0.9691594884602
 1700.00      -0.9782938996171
 1800.00      -0.9876500787820
 1900.00      -0.9972158790541
 2000.00      -1.0069804070238
 2100.00      -1.0169338393721
 2200.00      -1.0270672733880
 2300.00      -1.0373726039519
 2400.00      -1.0478424214034
 2500.00      -1.0584699260619
 2600.00      -1.0692488561516
 2700.00      -1.0801734266131
 2800.00      -1.0912382768262
 2900.00      -1.1024384256851
 3000.00      -1.1137692327800
 3100.00      -1.1252263646851
 3200.00      -1.1368057655416
 3300.00      -1.1485036312745
 3400.00      -1.1603163869006
 3500.00      -1.1722406664778
 3600.00      -1.1842732953244
 3700.00      -1.1964112741952
 3800.00      -1.2086517651537
 3900.00      -1.2209920789195
 4000.00      -1.2334296635028
 4100.00      -1.2459620939674
 4200.00      -1.2585870631853
 4300.00      -1.2713023734662
 4400.00      -1.2841059289600
 4500.00      -1.2969957287469
 4600.00      -1.3099698605369
 4700.00      -1.3230264949154
 4800.00      -1.3361638800749
 4900.00      -1.3493803369839
 5000.00      -1.3626742549489
 5100.00      -1.3760440875283
 5200.00      -1.3894883487668
 5300.00      -1.4030056097177
 5400.00      -1.4165944952261
 5500.00      -1.4302536809501
 5600.00      -1.4439818905978
 5700.00      -1.4577778933602
 5800.00      -1.4716405015245
 5900.00      -1.4855685682509
 6000.00      -1.4995609854997
# V= 167.8990000000000
    0.00      -0.8823671851256
  100.00      -0.8825166703844
  200.00      -0.8835637151732
  300.00      -0.8856859192982
  400.00      -0.8887600801718
  500.00      -0.8926384962286
  600.00      -0.8971990536857
  700.00      -0.9023468739111
  800.00      -0.9080081699535
  900.00      -0.9141246357294
 1000.00      -0.9206493356357
 1100.00      -0.9275438142906
 1200.00      -0.9347760607333
 1300.00      -0.9423190533968
 1400.00      -0.9501497010478
 1500.00      -0.9582480575105
 1600.00      -0.9665967290311
 1700.00      -0.9751804196657
 1800.00      -0.9839855772979
 1900.00      -0.9930001142397
 2000.00      -1.0022131839602
 2100.00      -1.0116150006461
 2200.00      -1.0211966918757
 2300.00      -1.0309501771959
 2400.00      -1.0408680671845
 2500.00      -1.0509435788773
 2600.00      -1.0611704643894
 2700.00      -1.0715429502661
 2800.00      -1.0820556856294
 2900.00      -1.0927036975868
 3000.00      -1.1034823526795
 3100.00      -1.1143873233840
 3200.00      -1.1254145588682
 3300.00      -1.1365602593489
 3400.00      -1.1478208535148
 3500.00      -1.1591929785710
 3600.00      -1.1706734625366
 3700.00      -1.1822593084866
 3800.00      -1.1939476804788
 3900.00      -1.2057358909465
 4000.00      -1.2176213893725
 4100.00      -1.2296017520847
 4200.00      -1.2416746730385
 4300.00      -1.2538379554698
 4400.00      -1.2660895043188
 4500.00      -1.2784273193365
 4600.00      -1.2908494888000
 4700.00      -1.3033541837707
 4800.00      -1.3159396528375
 4900.00      -1.3286042172955
 5000.00      -1.3413462667159
 5100.00      -1.3541642548683
 5200.00      -1.3670566959607
 5300.00      -1.3800221611679
 5400.00      -1.3930592754197
 5500.00      -1.4061667144264
 5600.00      -1.4193432019193
 5700.00      -1.4325875070878
 5800.00      -1.4458984421947
 5900.00      -1.4592748603566
 6000.00      -1.4727156534728
# V= 162.9050000000000
    0.00      -0.8828784965593
  100.00      -0.8830320222817
  200.00      -0.8840759935979
  300.00      -0.8861700725885
  400.00      -0.8891988156849
  500.00      -0.8930219570891
  600.00      -0.8975214206009
  700.00      -0.9026044871342
  800.00      -0.9081985896597
  900.00      -0.9142461535864
 1000.00      -0.9207007058531
 1100.00      -0.9275240971055
 1200.00      -0.9346845267731
 1300.00      -0.9421551227261
 1400.00      -0.9499129028843
 1500.00      -0.9579380027507
 1600.00      -0.9662130909940
 1700.00      -0.9747229202675
 1800.00      -0.9834539769146
 1900.00      -0.9923942041327
 2000.00      -1.0015327805203
 2100.00      -1.0108599409535
 2200.00      -1.0203668302277
 2300.00      -1.0300453823573
 2400.00      -1.0398882201860
 2500.00      -1.0498885712343
 2600.00      -1.0600401966464
 2700.00      -1.0703373307979
 2800.00      -1.0807746296447
 2900.00      -1.0913471262942
 3000.00      -1.1020501925850
 3100.00      -1.1128795056944
 3200.00      -1.1238310189821
 3300.00      -1.1349009364195
 3400.00      -1.1460856900728
 3500.00      -1.1573819201974
 3600.00      -1.1687864575774
 3700.00      -1.1802963078032
 3800.00      -1.1919086372281
 3900.00      -1.2036207603874
 4000.00      -1.2154301286940
 4100.00      -1.2273343202529
 4200.00      -1.2393310306606
 4300.00      -1.2514180646720
 4400.00      -1.2635933286364
 4500.00      -1.2758548236154
 4600.00      -1.2882006391076
 4700.00      -1.3006289473149
 4800.00      -1.3131379978934
 4900.00      -1.3257261131386
 5000.00      -1.3383916835614
 5100.00      -1.3511331638149
 5200.00      -1.3639490689403
 5300.00      -1.3768379708978
 5400.00      -1.3897984953602
 5500.00      -1.4028293187406
 5600.00      -1.4159291654364
 5700.00      -1.4290968052691
 5800.00      -1.4423310511023
 5900.00      -1.4556307566238
 6000.00      -1.4689948142771
# V= 158.1140000000000
    0.00      -0.8814208929863
  100.00      -0.8815626499058
  200.00      -0.8825480300032
  300.00      -0.8845447303994
  400.00      -0.8874536115086
  500.00      -0.8911445850313
  600.00      -0.8955047710195
  700.00      -0.9004441706788
  800.00      -0.9058917346915
  900.00      -0.9117907896353
 1000.00      -0.9180954271031
 1100.00      -0.9247678679104
 1200.00      -0.9317765635534
 1300.00      -0.9390948191438
 1400.00      -0.9466997806868
 1500.00      -0.9545716784515
 1600.00      -0.9626932526681
 1700.00      -0.9710493110029
 1800.00      -0.9796263827624
 1900.00      -0.9884124451691
 2000.00      -0.9973967041066
 2100.00      -1.0065694165778
 2200.00      -1.0159217455047
 2300.00      -1.0254456398882
 2400.00      -1.0351337350664
 2500.00      -1.0449792690563
 2600.00      -1.0549760118826
 2700.00      -1.0651182054827
 2800.00      -1.0754005122900
 2900.00      -1.0858179709914
 3000.00      -1.0963659582562
 3100.00      -1.1070401554640
 3200.00      -1.1178365196467
 3300.00      -1.1287512579981
 3400.00      -1.1397808054230
 3500.00      -1.1509218046866
 3600.00      -1.1621710887998
 3700.00      -1.1735256653348
 3800.00      -1.1849827024147
 3900.00      -1.1965395161593
 4000.00      -1.2081935594043
 4100.00      -1.2199424115355
 4200.00      -1.2317837693054
 4300.00      -1.2437154385144
 4400.00      -1.2557353264597
 4500.00      -1.2678414350642
 4600.00      -1.2800318546102
 4700.00      -1.2923047580148
 4800.00      -1.3046583955874
 4900.00      -1.3170910902217
 5000.00      -1.3296012329768
 5100.00      -1.3421872790096
 5200.00      -1.3548477438244
 5300.00      -1.3675811998084
 5400.00      -1.3803862730276
 5500.00      -1.3932616402589
 5600.00      -1.4062060262361
 5700.00      -1.4192182010919
 5800.00      -1.4322969779789
 5900.00      -1.4454412108527
 6000.00      -1.4586497924058
# V= 153.3900000000000
    0.00      -0.8780575642753
  100.00      -0.8782056581460
  200.00      -0.8791977848115
  300.00      -0.8811789235165
  400.00      -0.8840545851796
  500.00      -0.8877018161419
  600.00      -0.8920119852940
  700.00      -0.8968974493494
  800.00      -0.9022885092897
  900.00      -0.9081293047834
 1000.00      -0.9143744405647
 1100.00      -0.9209864748978
 1200.00      -0.9279340891593
 1300.00      -0.9351907498584
 1400.00      -0.9427337192852
 1500.00      -0.9505433133819
 1600.00      -0.9586023367332
 1700.00      -0.9668956461722
 1800.00      -0.9754098091316
 1900.00      -0.9841328327907
 2000.00      -0.9930539468476
 2100.00      -1.0021634274353
 2200.00      -1.0114524529871
 2300.00      -1.0209129851869
 2400.00      -1.0305376698219
 2500.00      -1.0403197535767
 2600.00      -1.0502530137102
 2700.00      -1.0603316982318
 2800.00      -1.0705504746966
 2900.00      -1.0809043861323
 3000.00      -1.0913888129015
 3100.00      -1.1019994395385
 3200.00      -1.1127322257789
 3300.00      -1.1235833811402
 3400.00      -1.1345493425299
 3500.00      -1.1456267544433
 3600.00      -1.1568124513889
 3700.00      -1.1681034422377
 3800.00      -1.1794968962401
 3900.00      -1.1909901304964
 4000.00      -1.2025805986950
 4100.00      -1.2142658809643
 4200.00      -1.2260436747027
 4300.00      -1.2379117862735
 4400.00      -1.2498681234631
 4500.00      -1.2619106886197
 4600.00      -1.2740375723948
 4700.00      -1.2862469480250
 4800.00      -1.2985370660959
 4900.00      -1.3109062497388
 5000.00      -1.3233528902166
 5100.00      -1.3358754428598
 5200.00      -1.3484724233198
 5300.00      -1.3611424041071
 5400.00      -1.3738840113906
 5500.00      -1.3866959220307
 5600.00      -1.3995768608287
 5700.00      -1.4125255979699
 5800.00      -1.4255409466462
 5900.00      -1.4386217608411
 6000.00      -1.4517669332646
# V= 148.7330000000000
    0.00      -0.8723079158982
  100.00      -0.8724492232100
  200.00      -0.8734023358409
  300.00      -0.8753119085375
  400.00      -0.8780946488353
  500.00      -0.8816365102339
  600.00      -0.8858338559536
  700.00      -0.8906017806554
  800.00      -0.8958721547940
  900.00      -0.9015900670620
 1000.00      -0.9077107250092
 1100.00      -0.9141970865358
 1200.00      -0.9210181078369
 1300.00      -0.9281474504267
 1400.00      -0.9355625187529
 1500.00      -0.9432437348451
 1600.00      -0.9511739840936
 1700.00      -0.9593381859987
 1800.00      -0.9677229573752
 1900.00      -0.9763163448736
 2000.00      -0.9851076101471
 2100.00      -0.9940870554987
 2200.00      -1.0032458810188
 2300.00      -1.0125760664852
 2400.00      -1.0220702729340
 2500.00      -1.0317217600041
 2600.00      -1.0415243160409
 2700.00      -1.0514721986059
 2800.00      -1.0615600835369
 2900.00      -1.0717830210854
 3000.00      -1.0821363979488
 3100.00      -1.0926159042453
 3200.00      -1.1032175046554
 3300.00      -1.1139374130959
 3400.00      -1.1247720704043
 3500.00      -1.1357181246008
 3600.00      -1.1467724133671
 3700.00      -1.1579319484408
 3800.00      -1.1691939016711
 3900.00      -1.1805555925209
 4000.00      -1.1920144768338
 4100.00      -1.2035681367091
 4200.00      -1.2152142713528
 4300.00      -1.2269506887902
 4400.00      -1.2387752983397
 4500.00      -1.2506861037646
 4600.00      -1.2626811970268
 4700.00      -1.2747587525788
 4800.00      -1.2869170221367
 4900.00      -1.2991543298848
 5000.00      -1.3114690680691
 5100.00      -1.3238596929390
 5200.00      -1.3363247210065
 5300.00      -1.3488627255898
 5400.00      -1.3614723336160
 5500.00      -1.3741522226599
 5600.00      -1.3869011181951
 5700.00      -1.3997177910421
 5800.00      -1.4126010549924
 5900.00      -1.4255497645974
 6000.00      -1.4385628131047
# V= 144.1450000000000
    0.00      -0.8641801855313
  100.00      -0.8643293721796
  200.00      -0.8652944310048
  300.00      -0.8671943214622
  400.00      -0.8699476428982
  500.00      -0.8734472358944
  600.00      -0.8775941003406
  700.00      -0.8823060698143
  800.00      -0.8875166563442
  900.00      -0.8931719746977
 1000.00      -0.8992279028781
 1100.00      -0.9056478550609
 1200.00      -0.9124011092928
 1300.00      -0.9194615613264
 1400.00      -0.9268067907895
 1500.00      -0.9344173538775
 1600.00      -0.9422762409039
 1700.00      -0.9503684549491
 1800.00      -0.9586806805038
 1900.00      -0.9672010198198
 2000.00      -0.9759187808306
 2100.00      -0.9848243048146
 2200.00      -0.9939088250337
 2300.00      -1.0031643497688
 2400.00      -1.0125835647612
 2500.00      -1.0221597512321
 2600.00      -1.0318867165181
 2700.00      -1.0417587350023
 2800.00      -1.0517704975127
 2900.00      -1.0619170677333
 3000.00      -1.0721938444607
 3100.00      -1.0825965287626
 3200.00      -1.0931210952719
 3300.00      -1.1037637669890
 3400.00      -1.1145209930728
 3500.00      -1.1253894291936
 3600.00      -1.1363659200892
 3700.00      -1.1474474840252
 3800.00      -1.1586312989077
 3900.00      -1.1699146898342
 4000.00      -1.1812951179033
 4100.00      -1.1927701701268
 4200.00      -1.2043375503133
 4300.00      -1.2159950708091
 4400.00      -1.2277406449974
 4500.00      -1.2395722804723
 4600.00      -1.2514880728127
 4700.00      -1.2634861998909
 4800.00      -1.2755649166626
 4900.00      -1.2877225503849
 5000.00      -1.2999574962222
 5100.00      -1.3122682132006
 5200.00      -1.3246532204761
 5300.00      -1.3371110938880
 5400.00      -1.3496404627706
 5500.00      -1.3622400069988
 5600.00      -1.3749084542472
 5700.00      -1.3876445774438
 5800.00      -1.4004471924008
 5900.00      -1.4133151556080
 6000.00      -1.4262473621747
# V= 139.6910000000000
    0.00      -0.8530744649904
  100.00      -0.8532201606419
  200.00      -0.8541596888150
  300.00      -0.8560065148641
  400.00      -0.8586867803365
  500.00      -0.8621013717544
  600.00      -0.8661562272571
  700.00      -0.8707719730502
  800.00      -0.8758837294886
  900.00      -0.8814385738626
 1000.00      -0.8873929830460
 1100.00      -0.8937107568819
 1200.00      -0.9003614291272
 1300.00      -0.9073190692094
 1400.00      -0.9145613770359
 1500.00      -0.9220689933902
 1600.00      -0.9298249687601
 1700.00      -0.9378143493653
 1800.00      -0.9460238507429
 1900.00      -0.9544415974782
 2000.00      -0.9630569134808
 2100.00      -0.9718601513156
 2200.00      -0.9808425520408
 2300.00      -0.9899961291162
 2400.00      -0.9993135714877
 2500.00      -1.0087881620869
 2600.00      -1.0184137088253
 2700.00      -1.0281844857986
 2800.00      -1.0380951828930
 2900.00      -1.0481408623568
 3000.00      -1.0583169211794
 3100.00      -1.0686190583460
 3200.00      -1.0790432462066
 3300.00      -1.0895857053358
 3400.00      -1.1002428823698
 3500.00      -1.1110114303949
 3600.00      -1.1218881915315
 3700.00      -1.1328701814165
 3800.00      -1.1439545753322
 3900.00      -1.1551386957718
 4000.00      -1.1664200012581
 4100.00      -1.1777960762640
 4200.00      -1.1892646221021
 4300.00      -1.2008234486693
 4400.00      -1.2124704669499
 4500.00      -1.2242036821913
 4600.00      -1.2360211876791
 4700.00      -1.2479211590473
 4800.00      -1.2599018490671
 4900.00      -1.2719615828661
 5000.00      -1.2840987535332
 5100.00      -1.2963118180722
 5200.00      -1.3085992936690
 5300.00      -1.3209597542446
 5400.00      -1.3333918272651
 5500.00      -1.3458941907862
 5600.00      -1.3584655707112
 5700.00      -1.3711047382432
 5800.00      -1.3838105075147
 5900.00      -1.3965817333798
 6000.00      -1.4094173093547
# V= 135.3720000000000
    0.00      -0.8391162016714
  100.00      -0.8392743593859
  200.00      -0.8402402921874
  300.00      -0.8420964965099
  400.00      -0.8447672952835
  500.00      -0.8481592982620
  600.00      -0.8521829385119
  700.00      -0.8567616561467
  800.00      -0.8618323062747
  900.00      -0.8673430665811
 1000.00      -0.8732511383667
 1100.00      -0.8795208160566
 1200.00      -0.8861219824281
 1300.00      -0.8930289605509
 1400.00      -0.9002196394979
 1500.00      -0.9076748043911
 1600.00      -0.9153776180999
 1700.00      -0.9233132159258
 1800.00      -0.9314683851567
 1900.00      -0.9398313090024
 2000.00      -0.9483913598916
 2100.00      -0.9571389310146
 2200.00      -0.9660652978042
 2300.00      -0.9751625030859
 2400.00      -0.9844232611114
 2500.00      -0.9938408767938
 2600.00      -1.0034091772786
 2700.00      -1.0131224536046
 2800.00      -1.0229754106758
 2900.00      -1.0329631241274
 3000.00      -1.0430810029456
 3100.00      -1.0533247569190
 3200.00      -1.0636903681706
 3300.00      -1.0741740661532
 3400.00      -1.0847723056004
 3500.00      -1.0954817470105
 3600.00      -1.1062992393121
 3700.00      -1.1172218044153
 3800.00      -1.1282466234008
 3900.00      -1.1393710241358
 4000.00      -1.1505924701371
 4100.00      -1.1619085505303
 4200.00      -1.1733169709725
 4300.00      -1.1848155454269
 4400.00      -1.1964021886910
 4500.00      -1.2080749095954
 4600.00      -1.2198318047991
 4700.00      -1.2316710531177
 4800.00      -1.2435909103278
 4900.00      -1.2555897044010
 5000.00      -1.2676658311208
 5100.00      -1.2798177500484
 5200.00      -1.2920439808000
 5300.00      -1.3043430996089
 5400.00      -1.3167137361441
 5500.00      -1.3291545705626
 5600.00      -1.3416643307743
 5700.00      -1.3542417899004
 5800.00      -1.3668857639088
 5900.00      -1.3795951094119
 6000.00      -1.3923687216115
# V= 131.0530000000000
    0.00      -0.8215638891811
  100.00      -0.8217266960043
  200.00      -0.8226925274136
  300.00      -0.8245270653899
  400.00      -0.8271569637877
  500.00      -0.8304953058203
  600.00      -0.8344572320777
  700.00      -0.8389690643717
  800.00      -0.8439694020576
  900.00      -0.8494075069286
 1000.00      -0.8552412774745
 1100.00      -0.8614354716214
 1200.00      -0.8679602896637
 1300.00      -0.8747902779916
 1400.00      -0.8819034863947
 1500.00      -0.8892808179898
 1600.00      -0.8969055237928
 1700.00      -0.9047628059583
 1800.00      -0.9128395031508
 1900.00      -0.9211238385214
 2000.00      -0.9296052158633
 2100.00      -0.9382740532133
 2200.00      -0.9471216458373
 2300.00      -0.9561400524956
 2400.00      -0.9653220003143
