#T (K)      V (a.u.^3)
# P= 0.000000 GPa
    0.0     164.5448273948292
  100.0     164.5890850508083
  200.0     164.7694130751447
  300.0     165.0570225382786
  400.0     165.4124616146523
  500.0     165.8112664385228
  600.0     166.2412864370743
  700.0     166.6965376219899
  800.0     167.1740656923860
  900.0     167.6725027455985
 1000.0     168.1913802925677
 1100.0     168.7307896537441
 1200.0     169.2911971321851
 1300.0     169.8733497450886
 1400.0     170.4782244976325
 1500.0     171.1069974163533
 1600.0     171.7610389077254
 1700.0     172.4419111396733
 1800.0     173.1513776377371
 1900.0     173.8914204337686
 2000.0     174.6642584348780
 2100.0     175.4723791148680
 2200.0     176.3185747975768
 2300.0     177.2059845813680
 2400.0     178.1381446750817
 2500.0     179.1190495402396
 2600.0     180.1532461309017
 2700.0     181.2459253162779
 2800.0     182.4030143434570
 2900.0     183.6313931403634
 3000.0     184.9389883025626
 3100.0     186.3350893466269
 3200.0     187.8306677221896
 3300.0     189.4386446740225
 3400.0     191.1740177469403
 3500.0     193.0535688074365
 3600.0     195.0964185665466
 3700.0     197.3241156364165
 3800.0     199.7605835795239
 3900.0     202.4335944005616
 4000.0     205.3733029972936
 4100.0     208.6145471207856
 4200.0     212.1957605250209
 4300.0     216.1610757086164
 4400.0     220.5602304809727
 4500.0     225.4470169729029
 4600.0     230.8821313607623
 4700.0     236.9417954725795
 4800.0     243.6948572024121
 4900.0     251.2351525278063
 5000.0     256.8480614563450
 5100.0     258.5291468428914
 5200.0     259.6486023626057
 5300.0     260.8298822992947
 5400.0     262.0365640664240
 5500.0     263.1319649802754
 5600.0     264.2509970921092
 5700.0     265.2897827300476
 5800.0     266.3928907477530
 5900.0     267.3811000098940
 6000.0     268.5917587589938
# P= 1.000000 GPa
    0.0     163.6348194887890
  100.0     163.6759515534348
  200.0     163.8448423258499
  300.0     164.1166464425520
  400.0     164.4540273286366
  500.0     164.8332602283522
  600.0     165.2424300181555
  700.0     165.6756137745882
  800.0     166.1298443760035
  900.0     166.6037043858504
 1000.0     167.0966530689728
 1100.0     167.6086903659286
 1200.0     168.1401764346895
 1300.0     168.6917366604280
 1400.0     169.2642093046978
 1500.0     169.8586140687286
 1600.0     170.4761449553997
 1700.0     171.1181649729014
 1800.0     171.7862123046080
 1900.0     172.4820129690559
 2000.0     173.2074950449426
 2100.0     173.9648134698778
 2200.0     174.7563787045482
 2300.0     175.5848900587762
 2400.0     176.4533747072343
 2500.0     177.3652355135245
 2600.0     178.3243250399042
 2700.0     179.3350159766305
 2800.0     180.4022694990209
 2900.0     181.5318038909429
 3000.0     182.7301564536073
 3100.0     184.0049245695438
 3200.0     185.3649996798322
 3300.0     186.8207755168540
 3400.0     188.3846489754246
 3500.0     190.0711313457492
 3600.0     191.8969965137334
 3700.0     193.8811183262192
 3800.0     196.0447540790665
 3900.0     198.4122523576571
 4000.0     201.0104854828751
 4100.0     203.8704296873511
 4200.0     207.0262894611369
 4300.0     210.5174507509946
 4400.0     214.3882695957436
 4500.0     218.6872041867173
 4600.0     223.4691592997988
 4700.0     228.8014097660780
 4800.0     234.7476671801996
 4900.0     241.3920917423093
 5000.0     246.4231692174217
 5100.0     248.1106481767492
 5200.0     249.3181208743481
 5300.0     250.5786613760283
 5400.0     251.8599656155566
 5500.0     253.0438742011320
 5600.0     254.2483552271733
 5700.0     255.3799728916492
 5800.0     256.5665501682088
 5900.0     257.6506305685034
 6000.0     258.9300684777554
# P= 2.000000 GPa
    0.0     162.7495722276150
  100.0     162.7877605044786
  200.0     162.9459026348324
  300.0     163.2028445120762
  400.0     163.5232450553317
  500.0     163.8840853477162
  600.0     164.2736805725976
  700.0     164.6861705881782
  800.0     165.1185820977803
  900.0     165.5694569404597
 1000.0     166.0381914530161
 1100.0     166.5247072588032
 1200.0     167.0292721901500
 1300.0     167.5524052124878
 1400.0     168.0948245766058
 1500.0     168.6574151333122
 1600.0     169.2412183660866
 1700.0     169.8474257280629
 1800.0     170.4773824910346
 1900.0     171.1325965296118
 2000.0     171.8147488323334
 2100.0     172.5257133663382
 2200.0     173.2675797915909
 2300.0     174.0426796765657
 2400.0     174.8536173610819
 2500.0     175.7033073711931
 2600.0     176.5950335799499
 2700.0     177.5325028758135
 2800.0     178.5198964915759
 2900.0     179.5620049554144
 3000.0     180.6642643886516
 3100.0     181.8329471381723
 3200.0     183.0753327005343
 3300.0     184.3998516566393
 3400.0     185.8164613940596
 3500.0     187.3368103762046
 3600.0     188.9749490473613
 3700.0     190.7472651139833
 3800.0     192.6724282631890
 3900.0     194.7717288041590
 4000.0     197.0689043290522
 4100.0     199.5913281535031
 4200.0     202.3692780047022
 4300.0     205.4377095970121
 4400.0     208.8359867408144
 4500.0     212.6075075692061
 4600.0     216.8016569394094
 4700.0     221.4776533498953
 4800.0     226.6939962606120
 4900.0     232.5258948332048
 5000.0     237.0187093846034
 5100.0     238.6887209351407
 5200.0     239.9522778469836
 5300.0     241.2620994976605
 5400.0     242.5896719242446
 5500.0     243.8333810394397
 5600.0     245.0957761110039
 5700.0     246.2931580573786
 5800.0     247.5379658539314
 5900.0     248.6924516039435
 6000.0     250.0183967617340
# P= 3.000000 GPa
    0.0     161.8878979383462
  100.0     161.9233108591037
  200.0     162.0713414213095
  300.0     162.3142928361905
  400.0     162.6187082538081
  500.0     162.9622435543554
  600.0     163.3334384385361
  700.0     163.7264970394148
  800.0     164.1384457851885
  900.0     164.5677920342341
 1000.0     165.0138791745637
 1100.0     165.4765601871625
 1200.0     165.9560221436291
 1300.0     166.4526922267032
 1400.0     166.9671837230218
 1500.0     167.5002638151917
 1600.0     168.0528423981271
 1700.0     168.6259631897569
 1800.0     169.2208051168990
 1900.0     169.8386889131066
 2000.0     170.4810849443761
 2100.0     171.1496285330719
 2200.0     171.8461382720051
 2300.0     172.5726363952939
 2400.0     173.3313736885444
 2500.0     174.1248588968129
 2600.0     174.9559059960472
 2700.0     175.8276762213363
 2800.0     176.7437161081449
 2900.0     177.7080658877421
 3000.0     178.7252818307023
 3100.0     179.8005848117568
 3200.0     180.9399899111372
 3300.0     182.1504050899949
 3400.0     183.4399194210651
 3500.0     184.8178956460430
 3600.0     186.2955188195514
 3700.0     187.8860054784357
 3800.0     189.6052106595187
 3900.0     191.4716466315590
 4000.0     193.5060911618411
 4100.0     195.7325636722117
 4200.0     198.1777018387711
 4300.0     200.8723376363669
 4400.0     203.8512145655841
 4500.0     207.1529480301833
 4600.0     210.8216793539323
 4700.0     214.9093883426685
 4800.0     219.4693416051741
 4900.0     224.5684832617408
 5000.0     228.5658039787668
 5100.0     230.1979564757203
 5200.0     231.4894619623083
 5300.0     232.8220968250534
 5400.0     234.1708279135637
 5500.0     235.4487400143989
 5600.0     236.7444282262004
 5700.0     237.9832460450125
 5800.0     239.2635662134853
 5900.0     240.4654091543052
 6000.0     241.8177510339883
# P= 4.000000 GPa
    0.0     161.0486895500139
  100.0     161.0814833627938
  200.0     161.2199925715800
  300.0     161.4497607826076
  400.0     161.7391114725371
  500.0     162.0663465790777
  600.0     162.4202239075903
  700.0     162.7950137026836
  800.0     163.1877458411258
  900.0     163.5969000478069
 1000.0     164.0217739976092
 1100.0     164.4621607033756
 1200.0     164.9181776972388
 1300.0     165.3901707854128
 1400.0     165.8786619494639
 1500.0     166.3843166048700
 1600.0     166.9079294696257
 1700.0     167.4504160043295
 1800.0     168.0128120664315
 1900.0     168.5962774319333
 2000.0     169.2021016043696
 2100.0     169.8317162158503
 2200.0     170.4867094101070
 2300.0     171.1688421320654
 2400.0     171.8800677347105
 2500.0     172.6225553989946
 2600.0     173.3987284310992
 2700.0     174.2112969348826
 2800.0     175.0632868875242
 2900.0     175.9581274399442
 3000.0     176.8996631941144
 3100.0     177.8922731345801
 3200.0     178.9409686138214
 3300.0     180.0514612880833
 3400.0     181.2303886635740
 3500.0     182.4853603735699
 3600.0     183.8253859526297
 3700.0     185.2609912402099
 3800.0     186.8047066285361
 3900.0     188.4716287314024
 4000.0     190.2795776072085
 4100.0     192.2494573965184
 4200.0     194.4045366463793
 4300.0     196.7718202586429
 4400.0     199.3817857191443
 4500.0     202.2685464791357
 4600.0     205.4712816170504
 4700.0     209.0354768601246
 4800.0     213.0092003769823
 4900.0     217.4517784905620
 5000.0     220.9955750211084
 5100.0     222.5729461523297
 5200.0     223.8680618985964
 5300.0     225.2005535199423
 5400.0     226.5485785013298
 5500.0     227.8382056399714
 5600.0     229.1454800589127
 5700.0     230.4041446691845
 5800.0     231.6997796586365
 5900.0     232.9283492472605
 6000.0     234.2891387181589
# P= 5.000000 GPa
    0.0     160.2309135757023
  100.0     160.2612334693758
  200.0     160.3907689650031
  300.0     160.6081025377279
  400.0     160.8832411196406
  500.0     161.1951057919003
  600.0     161.5326659818709
  700.0     161.8902593240204
  800.0     162.2649223567092
  900.0     162.6551131495825
 1000.0     163.0600893545894
 1100.0     163.4795927893879
 1200.0     163.9136790341255
 1300.0     164.3626232911225
 1400.0     164.8268678625558
 1500.0     165.3069881079386
 1600.0     165.8036792842253
 1700.0     166.3177454478202
 1800.0     166.8500976005380
 1900.0     167.4017566166439
 2000.0     167.9738567543079
 2100.0     168.5676549552508
 2200.0     169.1845423745549
 2300.0     169.8260577764684
 2400.0     170.4939030355771
 2500.0     171.1899616375242
 2600.0     171.9163298528188
 2700.0     172.6753424083005
 2800.0     173.4695949366005
 2900.0     174.3020145499626
 3000.0     175.1758661531023
 3100.0     176.0948473853452
 3200.0     177.0631640546783
 3300.0     178.0855784384526
 3400.0     179.1675846560783
 3500.0     180.3154300625854
 3600.0     181.5364507188980
 3700.0     182.8391327353848
 3800.0     184.2334728535002
 3900.0     185.7313765496704
 4000.0     187.3468952911364
 4100.0     189.0973304794997
 4200.0     191.0027581105484
 4300.0     193.0866428533557
 4400.0     195.3755328507023
 4500.0     197.8993238256971
 4600.0     200.6925188027526
 4700.0     203.7947810195037
 4800.0     207.2490697380490
 4900.0     211.1077019812365
 5000.0     214.2391445337416
 5100.0     215.7482813220558
 5200.0     217.0264663365379
 5300.0     218.3393697439169
 5400.0     219.6680686076579
 5500.0     220.9500324322435
 5600.0     222.2501000921184
 5700.0     223.5097617477586
 5800.0     224.8030345978041
 5900.0     226.0401179163018
 6000.0     227.3935672366642
# P= 6.000000 GPa
    0.0     159.4336038971026
  100.0     159.4615849786346
  200.0     159.5826554406075
  300.0     159.7882496105136
  400.0     160.0499673282492
  500.0     160.3473230501076
  600.0     160.6694920665570
  700.0     161.0108796633909
  800.0     161.3685324583544
  900.0     161.7408909736893
 1000.0     162.1271790201054
 1100.0     162.5270934786786
 1200.0     162.9406355790373
 1300.0     163.3680190826536
 1400.0     163.8096152977059
 1500.0     164.2659218596050
 1600.0     164.7375463389529
 1700.0     165.2251951638738
 1800.0     165.7296717520009
 1900.0     166.2518761593027
 2000.0     166.7928078826222
 2100.0     167.3535737103871
 2200.0     167.9353963069421
 2300.0     168.5396244592187
 2400.0     169.1677459195831
 2500.0     169.8214026177499
 2600.0     170.5024154032463
 2700.0     171.2128047617388
 2800.0     171.9548079550827
 2900.0     172.7309368279224
 3000.0     173.5439797885113
 3100.0     174.3970788175050
 3200.0     175.2937874759508
 3300.0     176.2381049989912
 3400.0     177.2346169946904
 3500.0     178.2884971551955
 3600.0     179.4057777133848
 3700.0     180.5933741727993
 3800.0     181.8593583089229
 3900.0     183.2132456599359
 4000.0     184.6661293946422
 4100.0     186.2315235814030
 4200.0     187.9253419143051
 4300.0     189.7672908101592
 4400.0     191.7802886094923
 4500.0     193.9903009793486
 4600.0     196.4274459849612
 4700.0     199.1261629374349
 4800.0     202.1244468504919
 4900.0     205.4681751962707
 5000.0     208.2276345383070
 5100.0     209.6585533406032
 5200.0     210.9030639565171
 5300.0     212.1804456585669
 5400.0     213.4744431522122
 5500.0     214.7324749058171
 5600.0     216.0094568106724
 5700.0     217.2540050950483
 5800.0     218.5297594408039
 5900.0     219.7595611934084
 6000.0     221.0920440122427
# P= 7.000000 GPa
    0.0     158.6558560958805
  100.0     158.6816241955857
  200.0     158.7947029611035
  300.0     158.9892041815384
  400.0     159.2382362731597
  500.0     159.5218826396922
  600.0     159.8295188341571
  700.0     160.1556176019946
  800.0     160.4972386963716
  900.0     160.8528085372330
 1000.0     161.2215225269642
 1100.0     161.6030376434267
 1200.0     161.9973083607328
 1300.0     162.4044932976849
 1400.0     162.8249022173199
 1500.0     163.2589639820110
 1600.0     163.7072089214622
 1700.0     164.1702590697220
 1800.0     164.6488228096642
 1900.0     165.1436952717139
 2000.0     165.6557598355097
 2100.0     166.1859929043084
 2200.0     166.7354714943292
 2300.0     167.3053819877549
 2400.0     167.8970293730617
 2500.0     168.5118498577303
 2600.0     169.1514311248927
 2700.0     169.8175288547083
 2800.0     170.5120802964454
 2900.0     171.2372510835378
 3000.0     171.9954354250694
 3100.0     172.7893182263691
 3200.0     173.6219202502943
 3300.0     174.4966230104734
 3400.0     175.4172806793671
 3500.0     176.3882129773377
 3600.0     177.4144232674803
 3700.0     178.5016009749720
 3800.0     179.6563336658385
 3900.0     180.8863161750332
 4000.0     182.2004227763169
 4100.0     183.6093559517066
 4200.0     185.1255401905285
 4300.0     186.7642508087332
 4400.0     188.5438856447097
 4500.0     190.4864988496883
 4600.0     192.6181182376738
 4700.0     194.9684847308754
 4800.0     197.5708288767692
 4900.0     200.4651195975257
 5000.0     202.8921670563977
 5100.0     204.2383535641820
 5200.0     205.4362434382783
 5300.0     206.6656814246599
 5400.0     207.9128470545256
 5500.0     209.1337875761601
 5600.0     210.3747186980763
 5700.0     211.5907825276809
 5800.0     212.8363825979322
 5900.0     214.0455251101812
 6000.0     215.3455764686951
# P= 8.000000 GPa
    0.0     157.8968223470800
  100.0     157.9204948458526
  200.0     158.0260228417656
  300.0     158.2100331375189
  400.0     158.4470637574866
  500.0     158.7177439862636
  600.0     159.0116441853129
  700.0     159.3233042505649
  800.0     159.6497993416689
  900.0     159.9895451114011
 1000.0     160.3417128399364
 1100.0     160.7059246656754
 1200.0     161.0820939314526
 1300.0     161.4703305102710
 1400.0     161.8708902976884
 1500.0     162.2841407649225
 1600.0     162.7105454787721
 1700.0     163.1506511747938
 1800.0     163.6050836606677
 1900.0     164.0745467951925
 2000.0     164.5598217487848
 2100.0     165.0617725846558
 2200.0     165.5813507756532
 2300.0     166.1196018320331
 2400.0     166.6776740598981
 2500.0     167.2568282003467
 2600.0     167.8584535089219
 2700.0     168.4840812700963
 2800.0     169.1353958327376
 2900.0     169.8142727161335
 3000.0     170.5227775310615
 3100.0     171.2632165308700
 3200.0     172.0381719683458
 3300.0     172.8505204702737
 3400.0     173.7035230013804
 3500.0     174.6008121711085
 3600.0     175.5465700931839
 3700.0     176.5455192672767
 3800.0     177.6030856798909
 3900.0     178.7255578002094
 4000.0     179.9201175357554
 4100.0     181.1953503372119
 4200.0     182.5610985622569
 4300.0     184.0293337905088
 4400.0     185.6142676542229
 4500.0     187.3329383462431
 4600.0     189.2065906348388
 4700.0     191.2606085166211
 4800.0     193.5237129790471
 4900.0     196.0304566470686
 5000.0     198.1638641096015
 5100.0     199.4222733486113
 5200.0     200.5643934620275
 5300.0     201.7369772034981
 5400.0     202.9284252345169
 5500.0     204.1022249588350
 5600.0     205.2970542389376
 5700.0     206.4740018614175
 5800.0     207.6793324787141
 5900.0     208.8568556986065
 6000.0     210.1151720290509
# P= 9.000000 GPa
    0.0     157.1557068850636
  100.0     157.1773934864837
  200.0     157.2757819481127
  300.0     157.4498626218701
  400.0     157.6755292699871
  500.0     157.9339352368530
  600.0     158.2148401642539
  700.0     158.5128509035615
  800.0     158.8250596041962
  900.0     159.1498743763807
 1000.0     159.4864457298867
 1100.0     159.8343657520425
 1200.0     160.1935110597850
 1300.0     160.5639491777288
 1400.0     160.9458875827635
 1500.0     161.3396402959667
 1600.0     161.7456114309384
 1700.0     162.1642815506833
 1800.0     162.5962045547907
 1900.0     163.0420030634565
 2000.0     163.5023704389976
 2100.0     163.9780721250283
 2200.0     164.4699501616000
 2300.0     164.9789292666634
 2400.0     165.5060223636010
 2500.0     166.0523389740632
 2600.0     166.6190990698997
 2700.0     167.2076431458177
 2800.0     167.8194412182876
 2900.0     168.4561239417360
 3000.0     169.1194815031990
 3100.0     169.8115043596704
 3200.0     170.5344110817101
 3300.0     171.2906625456150
 3400.0     172.0830343465060
 3500.0     172.9146016640132
 3600.0     173.7888848087416
 3700.0     174.7098334456580
 3800.0     175.6819561184094
 3900.0     176.7104390752552
 4000.0     177.8011551579877
 4100.0     178.9610697441910
 4200.0     180.1980800019839
 4300.0     181.5217013121288
 4400.0     182.9430883086031
 4500.0     184.4754250530755
 4600.0     186.1349472369659
 4700.0     187.9413964114435
 4800.0     189.9185963196471
 4900.0     192.0961078069591
 5000.0     193.9738477196263
 5100.0     195.1449040499383
 5200.0     196.2259027078744
 5300.0     197.3362331564576
 5400.0     198.4663226117518
 5500.0     199.5860415691914
 5600.0     200.7276319171870
 5700.0     201.8575709122051
 5800.0     203.0150374929908
 5900.0     204.1523989904672
 6000.0     205.3618381167325
# P= 10.000000 GPa
    0.0     156.4317620259704
  100.0     156.4515652268859
  200.0     156.5431982444438
  300.0     156.7078732887028
  400.0     156.9227707038702
  500.0     157.1695473104085
  600.0     157.4381465881965
  700.0     157.7232419369188
  800.0     158.0219439013937
  900.0     158.3326557293423
 1000.0     158.6545101479790
 1100.0     158.9870732943131
 1200.0     159.3301891413324
 1300.0     159.6838879917811
 1400.0     160.0483341222006
 1500.0     160.4237947679223
 1600.0     160.8106206871194
 1700.0     161.2092351471513
 1800.0     161.6201273676438
 1900.0     162.0438499812105
 2000.0     162.4810184888872
 2100.0     162.9323121263685
 2200.0     163.3984786055635
 2300.0     163.8803365361465
 2400.0     164.3787820678799
 2500.0     164.8947951813285
 2600.0     165.4294496148547
 2700.0     165.9839225066865
 2800.0     166.5595017844862
 2900.0     167.1576106903834
 3000.0     167.7798068746210
 3100.0     168.4278157556802
 3200.0     169.1035524268461
 3300.0     169.8091328408668
 3400.0     170.5469323678293
 3500.0     171.3195700139233
 3600.0     172.1300281035581
 3700.0     172.9816335299385
 3800.0     173.8781605040220
 3900.0     174.8239220997912
 4000.0     175.8237664352782
 4100.0     176.8833997541578
 4200.0     178.0092316910262
 4300.0     179.2089183961322
 4400.0     180.4913378445339
 4500.0     181.8668524221618
 4600.0     183.3480756819864
 4700.0     184.9501143951715
 4800.0     186.6909785152545
