# T (K)      fittedE (Ry.)      P (GPa)
# V = 42.244600 (a.u.^3)
    0.0       0.6164268439523     552.4065872662695
   50.0       0.6171162245773     552.5561385471218
  100.0       0.6181739762389     552.8243606911010
  150.0       0.6190403235207     553.0465775584422
  200.0       0.6200163609031     553.2204177387554
  250.0       0.6209665112790     553.4241609254771
  300.0       0.6219339930848     553.7381366704176
  350.0       0.6228590350570     553.9789449147291
  400.0       0.6238136592662     554.1809186956866
  450.0       0.6247545214588     554.3992818220984
  500.0       0.6257022994061     554.5731614522881
  550.0       0.6266351107205     554.7932299713025
  600.0       0.6277608912540     555.0166614963406
  650.0       0.6278986357358     555.2343864428102
  700.0       0.6289454041814     553.2891131128620
  750.0       0.6305483212914     553.5122603227788
  800.0       0.6322517166444     553.7547269726118
  850.0       0.6332185023539     556.1409123252884
  900.0       0.6330760851232     556.3752707883480
  950.0       0.6343738519382     556.6181446268880
 1000.0       0.6352001375293     556.8818915821001
 1050.0       0.6361723916672     557.1000315157929
 1100.0       0.6370693152267     557.3362638929005
 1150.0       0.6380429991818     557.5308225179523
 1200.0       0.6390264115216     557.7674611855085
 1250.0       0.6400816412598     557.9998127432783
 1300.0       0.6408923353213     558.3425679938280
 1350.0       0.6417997673254     558.4649550581887
 1400.0       0.6427316009419     558.6973316773684
 1450.0       0.6440559308590     558.8972859610864
 1500.0       0.6448765666782     559.5616541456312
 1550.0       0.6458059682835     559.7812460405630
 1600.0       0.6465680957206     560.2640454946929
 1650.0       0.6475139639590     560.1665056627278
 1700.0       0.6483869053257     560.6353567396590
 1750.0       0.6489629178496     560.3801283324126
 1800.0       0.6505460024995     560.5964124723794
 1850.0       0.6513149140691     560.8233962215770
 1900.0       0.6523130793879     561.0323080321496
 1950.0       0.6532562504100     561.2683828179838
 2000.0       0.6541427521646     561.4858623847514
 2050.0       0.6551563768775     561.7043291783506
 2100.0       0.6561238652767     561.9358612549655
 2150.0       0.6570356785526     562.1577744293015
 2200.0       0.6580305685973     562.4057619386923
 2250.0       0.6589712992467     562.6368551099122
 2300.0       0.6598948564030     562.8639734223038
 2350.0       0.6608767194871     563.0712967486069
 2400.0       0.6618405980046     563.3497795596749
 2450.0       0.6627050362830     563.5809034839966
 2500.0       0.6638277983343     563.7778748393256
 2550.0       0.6645793721250     563.9923401693153
 2600.0       0.6654581073559     564.2638561125902
 2650.0       0.6666333381746     564.4180167820172
 2700.0       0.6673863820343     564.6034580187968
 2750.0       0.6685169546537     564.7939947652751
 2800.0       0.6694243531305     565.0283979861019
 2850.0       0.6702547883559     565.2281588911144
 2900.0       0.6713687507464     565.4536078800618
 2950.0       0.6722544969691     565.6819655604229
 3000.0       0.6731553476655     565.8999986340278
 3050.0       0.6741471589597     566.1234042238957
 3100.0       0.6751130760980     566.3614554191464
 3150.0       0.6760663837525     566.5881659303823
 3200.0       0.6770083733293     566.8134085975370
 3250.0       0.6779603018139     567.0380222714833
 3300.0       0.6789108030867     567.2632262155342
 3350.0       0.6798591645332     567.4881729473701
 3400.0       0.6808131340872     567.7131726927846
 3450.0       0.6817505741940     567.9360112202792
 3500.0       0.6827210858389     568.1362075356448
 3550.0       0.6835815923691     568.3594898272958
 3600.0       0.6845467044567     568.5486854657897
 3650.0       0.6855690344459     568.7695783410526
 3700.0       0.6865442265761     568.9914197772049
 3750.0       0.6875103193536     569.2298719795114
 3800.0       0.6883828218949     569.4498612558015
 3850.0       0.6893433353908     569.6681072166514
 3900.0       0.6903034437852     569.8886509633650
 3950.0       0.6912286890795     570.1060161900019
 4000.0       0.6922853490318     570.3247671190708
 4050.0       0.6932340280943     570.5718540998994
 4100.0       0.6940285595988     570.7895602074401
 4150.0       0.6950105820644     571.0006207787217
 4200.0       0.6960363520620     571.2189068100630
 4250.0       0.6969774656407     571.4710261938536
 4300.0       0.6978899034423     571.6936278097733
 4350.0       0.6988497545714     571.9150940107204
 4400.0       0.6998183647536     572.1363112552639
 4450.0       0.7007264056561     572.3546784891663
 4500.0       0.7016888327837     572.6081476777158
 4550.0       0.7026509674183     572.8323241529581
 4600.0       0.7035961525128     573.0284078901481
 4650.0       0.7044991430250     573.2504713676153
 4700.0       0.7057344174686     573.4728837858141
 4750.0       0.7066700876114     573.8095257753793
 4800.0       0.7073431035052     574.0339161586148
 4850.0       0.7083921267930     574.2623265177492
 4900.0       0.7092866318009     574.4909869356952
 4950.0       0.7103643780738     574.7198985066950
 5000.0       0.7118105092481     574.8769027846304
# V = 42.177798 (a.u.^3)
    0.0       0.6189408428455     554.8147299906907
   50.0       0.6196298047772     554.9643999478119
  100.0       0.6206875180592     555.2301316294970
  150.0       0.6215546236682     555.4519993029611
  200.0       0.6225309910460     555.6275732935070
  250.0       0.6234789788649     555.8317396007735
  300.0       0.6244459761686     556.1416653026563
  350.0       0.6253736926745     556.3812843263161
  400.0       0.6263277848746     556.5838438452561
  450.0       0.6272699500785     556.8019572068316
  500.0       0.6282162961711     556.9775921319622
  550.0       0.6291533504074     557.1973976735758
  600.0       0.6302548269287     557.4204796209356
  650.0       0.6304934204231     557.6381108382221
  700.0       0.6315290441780     555.7823875439251
  750.0       0.6330514553508     556.0051766508745
  800.0       0.6346645177106     556.2464676519240
  850.0       0.6356263817411     558.5425936155962
  900.0       0.6356187937541     558.7761745053392
  950.0       0.6368760333528     559.0178299379949
 1000.0       0.6377151533717     559.2795361562387
 1050.0       0.6386852942188     559.4975224959079
 1100.0       0.6395846639165     559.7328770377275
 1150.0       0.6405576369013     559.9283288501204
 1200.0       0.6415410294492     560.1640336637271
 1250.0       0.6425848899009     560.3956168512460
 1300.0       0.6434065698472     560.7330156643583
 1350.0       0.6443202603203     560.8592892397489
 1400.0       0.6452539977001     561.0909009347237
 1450.0       0.6465345511803     561.2915149484198
 1500.0       0.6473632285317     561.9371944664417
 1550.0       0.6483003123103     562.1567167871760
 1600.0       0.6490968047782     562.6282809230034
 1650.0       0.6500321309705     562.5436978889353
 1700.0       0.6509155645478     563.0019983246282
 1750.0       0.6515350652316     562.7662920983059
 1800.0       0.6530449318923     562.9825161611166
 1850.0       0.6538351915935     563.2089760664197
 1900.0       0.6548267384387     563.4181323461868
 1950.0       0.6557697913164     563.6533190035080
 2000.0       0.6566593324607     563.8707135950293
 2050.0       0.6576700742401     564.0890642764789
 2100.0       0.6586383905179     564.3198828419344
 2150.0       0.6595479437768     564.5415102149398
 2200.0       0.6605415724919     564.7881543543682
 2250.0       0.6614844862229     565.0185562095775
 2300.0       0.6624130801144     565.2451709011381
 2350.0       0.6633868577488     565.4527786405541
 2400.0       0.6643457453184     565.7286716174490
 2450.0       0.6652238588487     565.9591259064520
 2500.0       0.6663498166848     566.1568122019878
 2550.0       0.6670852606947     566.3711691203524
 2600.0       0.6679750617020     566.6405891082644
 2650.0       0.6691645781008     566.7971242013300
 2700.0       0.6699090947496     566.9837583661189
 2750.0       0.6710331415873     567.1753035301613
 2800.0       0.6719396446962     567.4088288013762
 2850.0       0.6727737018435     567.6092528987447
 2900.0       0.6738805533254     567.8342653014370
 2950.0       0.6747692461514     568.0620370070020
 3000.0       0.6756713762328     568.2799601746065
 3050.0       0.6766588811476     568.5030264677719
 3100.0       0.6776245406633     568.7401389666437
 3150.0       0.6785806551167     568.9663554275835
 3200.0       0.6795223416559     569.1911683515790
 3250.0       0.6804744057936     569.4153775234277
 3300.0       0.6814247000345     569.6401527613996
 3350.0       0.6823734687579     569.8646812641159
 3400.0       0.6833261807897     570.0892617433308
 3450.0       0.6842702384337     570.3117668046365
 3500.0       0.6852382473714     570.5125395242632
 3550.0       0.6861015752213     570.7354734876315
 3600.0       0.6870684183874     570.9257432635419
 3650.0       0.6880829938230     571.1463769912510
 3700.0       0.6890559156165     571.3679305764102
 3750.0       0.6900216983247     571.6053892477445
 3800.0       0.6908997365302     571.8251631053338
 3850.0       0.6918587074151     572.0432707262215
 3900.0       0.6928187993506     572.2635811625599
 3950.0       0.6937466317002     572.4808393657894
 4000.0       0.6947947229405     572.6994258319078
 4050.0       0.6957434847871     572.9451566303426
 4100.0       0.6965477276803     573.1627477363078
 4150.0       0.6975299224308     573.3739817286261
 4200.0       0.6985443715186     573.5921226014070
 4250.0       0.6994847810000     573.8427285749167
 4300.0       0.7004068774485     574.0650120277046
 4350.0       0.7013636870391     574.2862096820487
 4400.0       0.7023363350355     574.5071626018037
 4450.0       0.7032348232738     574.7253792712633
 4500.0       0.7041931266846     574.9773166352343
 4550.0       0.7051748364776     575.2011074228097
 4600.0       0.7061151780255     575.3979411812810
 4650.0       0.7070202284994     575.6197118673339
 4700.0       0.7082193230731     575.8418114384576
 4750.0       0.7091544282838     576.1734488629058
 4800.0       0.7098646648145     576.3974531420093
 4850.0       0.7109029199685     576.6253094635174
 4900.0       0.7117973973119     576.8534064856176
 4950.0       0.7128855887158     577.0817422403073
 5000.0       0.7143849753772     577.2409243866075
# V = 42.110996 (a.u.^3)
    0.0       0.6214657975414     557.2317649589945
   50.0       0.6221543510843     557.3815496237158
  100.0       0.6232120216090     557.6448142304894
  150.0       0.6240798536214     557.8663338941444
  200.0       0.6250565372802     558.0436210921413
  250.0       0.6260024526455     558.2482036360268
  300.0       0.6269689878862     558.5541193000154
  350.0       0.6278992656424     558.7925587878822
  400.0       0.6288528483172     558.9956956828355
  450.0       0.6297962618936     559.2135595327204
  500.0       0.6307412338604     559.3909288397028
  550.0       0.6316823557121     559.6104717060570
  600.0       0.6327605477493     559.8332052924701
  650.0       0.6330957440927     560.0507415311780
  700.0       0.6341206939382     558.2836302375980
  750.0       0.6355659902219     558.5060626134657
  800.0       0.6370925264932     558.7461877322503
  850.0       0.6380496715485     560.9531925949980
  900.0       0.6381712357587     561.1860016602781
  950.0       0.6393896582838     561.4264489925232
 1000.0       0.6402410684949     561.6861333535576
 1050.0       0.6412091858970     561.9039651519490
 1100.0       0.6421108925493     562.1384487750703
 1150.0       0.6430831877737     562.3347818932951
 1200.0       0.6440665675431     562.5695601370115
 1250.0       0.6450995401842     562.8003805234819
 1300.0       0.6459317337940     563.1324765251844
 1350.0       0.6468514204392     563.2625934298728
 1400.0       0.6477869809395     563.4934457780108
 1450.0       0.6490256061766     563.6947101063038
 1500.0       0.6498619745815     564.3218937403911
 1550.0       0.6508064244567     564.5413449272247
 1600.0       0.6516358496435     565.0017888361510
 1650.0       0.6525610615457     564.9300244396691
 1700.0       0.6534545475002     565.3778820414660
 1750.0       0.6541156999019     565.1614915395364
 1800.0       0.6555554406553     565.3776537286741
 1850.0       0.6563661475370     565.6035927420866
 1900.0       0.6573513538836     565.8129883995559
 1950.0       0.6582942920422     566.0472937347133
 2000.0       0.6591867374740     566.2646018566128
 2050.0       0.6601947249707     566.4828351765171
 2100.0       0.6611638387184     566.7129451712343
 2150.0       0.6620712168309     566.9342872247021
 2200.0       0.6630636433644     567.1795995245400
 2250.0       0.6640086498875     567.4093149469981
 2300.0       0.6649420711459     567.6354288023286
 2350.0       0.6659080973379     567.8433153774897
 2400.0       0.6668621992551     568.1166431733218
 2450.0       0.6677534171786     568.3464322774682
 2500.0       0.6688824715803     568.5448235425426
 2550.0       0.6696024060926     568.7590706202348
 2600.0       0.6705028104000     569.0264142838130
 2650.0       0.6717060719197     569.1852964281335
 2700.0       0.6724423732183     569.3731084546881
 2750.0       0.6735601911524     569.5656492646932
 2800.0       0.6744658276774     569.7983030864208
 2850.0       0.6753033383239     569.9993809362661
 2900.0       0.6764033967545     570.2239587778676
 2950.0       0.6772949051910     570.4511482241600
 3000.0       0.6781982538077     570.6689599995547
 3050.0       0.6791816346290     570.8916882699112
 3100.0       0.6801470498116     571.1278692829693
 3150.0       0.6811058574595     571.3535944210524
 3200.0       0.6820472518188     571.5779795372273
 3250.0       0.6829994465572     571.8017860361591
 3300.0       0.6839495422538     572.0261345115566
 3350.0       0.6848987013001     572.2502466714961
 3400.0       0.6858502073544     572.4744096728622
 3450.0       0.6868006119432     572.6965821662375
 3500.0       0.6877662234332     572.8979228546619
 3550.0       0.6886322423889     573.1205096248196
 3600.0       0.6896007489134     573.3118398682867
 3650.0       0.6906078970046     573.5322147015877
 3700.0       0.6915786450748     573.7534807215633
 3750.0       0.6925441328054     573.9899538155951
 3800.0       0.6934274685701     574.2095120748321
 3850.0       0.6943849613910     574.4274801880215
 3900.0       0.6953450390708     574.6475571343331
 3950.0       0.6962753494100     574.8647069912654
 4000.0       0.6973152375650     575.0831282349967
 4050.0       0.6982640786546     575.3275144875673
 4100.0       0.6990776122833     575.5449892690674
 4150.0       0.7000599780958     575.7563923707817
 4200.0       0.7010635777190     575.9743871949100
 4250.0       0.7020033101726     576.2234929870355
 4300.0       0.7029346676545     576.4454589952984
 4350.0       0.7038885601659     576.6663884705087
 4400.0       0.7048650856726     576.8870772124629
 4450.0       0.7057544007709     577.1051424192214
 4500.0       0.7067087498787     577.3555613100003
 4550.0       0.7077092441079     577.5789680676041
 4600.0       0.7086449369812     577.7765415582146
 4650.0       0.7095519564322     577.9980198039906
 4700.0       0.7107163843561     578.2198074589617
 4750.0       0.7116509450519     578.5464896980079
 4800.0       0.7123968477360     578.7701093836868
 4850.0       0.7134247872727     578.9974147951409
 4900.0       0.7143192291658     579.2249518184452
 4950.0       0.7154174642565     579.4527152355349
 5000.0       0.7169680336126     579.6140499111465
# V = 42.044194 (a.u.^3)
    0.0       0.6240017484705     559.6577140805205
   50.0       0.6246899038192     559.8076093126871
  100.0       0.6257475272542     560.0684309342067
  150.0       0.6266160540842     560.2896037639545
  200.0       0.6275930404559     560.4685831256575
  250.0       0.6285369725116     560.6735749079123
  300.0       0.6295030678911     560.9755214129306
  350.0       0.6304357948193     561.2127918174663
  400.0       0.6313888902133     561.4164970731847
  450.0       0.6323334981044     561.6341115257028
  500.0       0.6332771530599     561.8131940972980
  550.0       0.6342221690820     562.0324745823682
  600.0       0.6352780853387     562.2548611062267
  650.0       0.6357056834423     562.4723007821545
  700.0       0.6367204251605     560.7928432598752
  750.0       0.6380919616023     561.0149204725303
  800.0       0.6395357382922     561.2538898022082
  850.0       0.6404883649235     563.3727320955892
  900.0       0.6407334645392     563.6047751832523
  950.0       0.6419147619832     563.8440248838805
 1000.0       0.6427779239269     564.1017067084274
 1050.0       0.6437441067776     564.3193831979382
 1100.0       0.6446480423560     564.5530027046273
 1150.0       0.6456196926799     564.7502053451668
 1200.0       0.6466030666134     564.9840643683800
 1250.0       0.6476256278066     565.2141277271535
 1300.0       0.6484678678694     565.5409754417324
 1350.0       0.6493932911775     565.6748918733717
 1400.0       0.6503305950111     565.9049904847051
 1450.0       0.6515291205693     566.1068956387195
 1500.0       0.6523728332667     566.7157805647612
 1550.0       0.6533243365214     566.9351589355010
 1600.0       0.6541852773442     567.3846000362335
 1650.0       0.6551007981618     567.3255133814217
 1700.0       0.6560039013248     567.7630382921367
 1750.0       0.6567048885071     567.5657525381955
 1800.0       0.6580775625991     567.7818509428193
 1850.0       0.6589078252784     568.0072722409095
 1900.0       0.6598869661473     568.2169021070126
 1950.0       0.6608297929762     568.4503330692596
 2000.0       0.6617250090240     568.6675532353281
 2050.0       0.6627303695276     568.8856678789633
 2100.0       0.6637002506614     569.1150743331896
 2150.0       0.6646055375920     569.3361317857265
 2200.0       0.6655968204697     569.5801241193168
 2250.0       0.6665438304536     569.8091578289634
 2300.0       0.6674818719327     570.0347737061589
 2350.0       0.6684404771449     570.2429335805267
 2400.0       0.6693899965241     570.5137212403740
 2450.0       0.6702937540403     570.7428499041015
 2500.0       0.6714258068633     570.9419358250746
 2550.0       0.6721308455445     571.1560717637024
 2600.0       0.6730413955840     571.4213590687820
 2650.0       0.6742578675353     571.5825602795245
 2700.0       0.6749862620044     571.7715351424314
 2750.0       0.6760981447810     571.9650581163569
 2800.0       0.6770029431961     572.1968474051869
 2850.0       0.6778437406954     572.3985694124758
 2900.0       0.6789373205740     572.6227147834790
 2950.0       0.6798315150118     572.8493257350181
 3000.0       0.6807360219569     573.0670248361431
 3050.0       0.6817154590390     573.2894160309453
 3100.0       0.6826806430379     573.5246731688884
 3150.0       0.6836420314852     573.7499097360519
 3200.0       0.6845831444067     573.9738690369066
 3250.0       0.6855354647456     574.1972746349404
 3300.0       0.6864853702958     574.4211983647618
 3350.0       0.6874349028921     574.6448961580932
 3400.0       0.6883852539685     574.8686436414469
 3450.0       0.6893417377784     575.0904847019639
 3500.0       0.6903050559645     575.2923845644195
 3550.0       0.6911736371845     575.5146254315924
 3600.0       0.6921437400684     575.7070020726227
 3650.0       0.6931437845614     575.9271181830014
 3700.0       0.6941124544981     576.1480973727322
 3750.0       0.6950776621876     576.3835928431315
 3800.0       0.6959660599236     576.6029352182068
 3850.0       0.6969221385427     576.8207628601114
