# T (K)     Gibbs free energy (Ry.)
# P= 600.000000 GPa
    0.0       2.3373720856876
   50.0       2.3364484342506
  100.0       2.3344068174417
  150.0       2.3318749381361
  200.0       2.3290216029517
  250.0       2.3259271707151
  300.0       2.3226461783874
  350.0       2.3192001804601
  400.0       2.3156213410665
  450.0       2.3119197615421
  500.0       2.3081155358916
  550.0       2.3042143780806
  600.0       2.3002280430429
  650.0       2.2961627709723
  700.0       2.2919863630087
  750.0       2.2877794084490
  800.0       2.2835088808139
  850.0       2.2792140851992
  900.0       2.2748290525125
  950.0       2.2703890428109
 1000.0       2.2659003664268
 1050.0       2.2613631847799
 1100.0       2.2567816362003
 1150.0       2.2521572134835
 1200.0       2.2474899678122
 1250.0       2.2427826626872
 1300.0       2.2380387320100
 1350.0       2.2332573872981
 1400.0       2.2284401602927
 1450.0       2.2235904900404
 1500.0       2.2187126461715
 1550.0       2.2138008309368
 1600.0       2.2088556047131
 1650.0       2.2038752229966
 1700.0       2.1988737917063
 1750.0       2.1938352066399
 1800.0       2.1887753808663
 1850.0       2.1836886753886
 1900.0       2.1785764758898
 1950.0       2.1734393867107
 2000.0       2.1682784261442
 2050.0       2.1630938871203
 2100.0       2.1578848073902
 2150.0       2.1526536602179
 2200.0       2.1474012367116
 2250.0       2.1421256536841
 2300.0       2.1368294396077
 2350.0       2.1315113828898
 2400.0       2.1261758016572
 2450.0       2.1208186845511
 2500.0       2.1154408896517
 2550.0       2.1100416151675
 2600.0       2.1046341924756
 2650.0       2.0991967609585
 2700.0       2.0937447263125
 2750.0       2.0882757915629
 2800.0       2.0827880862786
 2850.0       2.0772858025415
 2900.0       2.0717660511603
 2950.0       2.0662291166986
 3000.0       2.0606771574412
 3050.0       2.0551091452544
 3100.0       2.0495257868331
 3150.0       2.0439262496234
 3200.0       2.0383116016617
 3250.0       2.0326820116883
 3300.0       2.0270377260004
 3350.0       2.0213789533528
 3400.0       2.0157059200040
 3450.0       2.0100187178275
 3500.0       2.0043167914823
 3550.0       1.9986021913601
 3600.0       1.9928742066397
 3650.0       1.9871325721655
 3700.0       1.9813781137112
 3750.0       1.9756103489737
 3800.0       1.9698300625093
 3850.0       1.9640373438598
 3900.0       1.9582321882599
 3950.0       1.9524146263512
 4000.0       1.9465849455638
 4050.0       1.9407428737348
 4100.0       1.9348895731937
 4150.0       1.9290249401379
 4200.0       1.9231482786108
 4250.0       1.9172611031955
 4300.0       1.9113619355048
 4350.0       1.9054516755678
 4400.0       1.8995302329367
 4450.0       1.8935977914810
 4500.0       1.8876565224681
 4550.0       1.8817028321137
 4600.0       1.8757378738959
 4650.0       1.8697633604665
 4700.0       1.8637784126948
 4750.0       1.8577839980532
 4800.0       1.8517789568073
 4850.0       1.8457638282889
 4900.0       1.8397388663442
 4950.0       1.8337040697461
 5000.0       1.8276536992748
# P= 602.000000 GPa
    0.0       2.3429384030540
   50.0       2.3420152833246
  100.0       2.3399744578010
  150.0       2.3374433388621
  200.0       2.3345907196790
  250.0       2.3314970294884
  300.0       2.3282169000508
  350.0       2.3247716798032
  400.0       2.3211935874918
  450.0       2.3174927633060
  500.0       2.3136892547698
  550.0       2.3097888578389
  600.0       2.3058032908859
  650.0       2.3017387821237
  700.0       2.2975607752483
  750.0       2.2933545672916
  800.0       2.2890848065484
  850.0       2.2847931825323
  900.0       2.2804089347444
  950.0       2.2759697155233
 1000.0       2.2714818577022
 1050.0       2.2669454411551
 1100.0       2.2623646813189
 1150.0       2.2577409997963
 1200.0       2.2530745420916
 1250.0       2.2483680196737
 1300.0       2.2436250097789
 1350.0       2.2388443169494
 1400.0       2.2340278748649
 1450.0       2.2291789531304
 1500.0       2.2243024552414
 1550.0       2.2193914235779
 1600.0       2.2144473179089
 1650.0       2.2094672910822
 1700.0       2.2044669726413
 1750.0       2.1994285247269
 1800.0       2.1943694698433
 1850.0       2.1892835491303
 1900.0       2.1841721109885
 1950.0       2.1790358207885
 2000.0       2.1738756355491
 2050.0       2.1686918740721
 2100.0       2.1634835879129
 2150.0       2.1582532226586
 2200.0       2.1530016204708
 2250.0       2.1477268325944
 2300.0       2.1424314096456
 2350.0       2.1371141135606
 2400.0       2.1317794033080
 2450.0       2.1264230853564
 2500.0       2.1210460367984
 2550.0       2.1156475303479
 2600.0       2.1102409829093
 2650.0       2.1048042261582
 2700.0       2.0993529199685
 2750.0       2.0938847226793
 2800.0       2.0883978206294
 2850.0       2.0828962908293
 2900.0       2.0773773328096
 2950.0       2.0718411955332
 3000.0       2.0662900195608
 3050.0       2.0607227994867
 3100.0       2.0551402581913
 3150.0       2.0495415188380
 3200.0       2.0439276669801
 3250.0       2.0382988725300
 3300.0       2.0326553838794
 3350.0       2.0269974083381
 3400.0       2.0213251727441
 3450.0       2.0156387649125
 3500.0       2.0099375925157
 3550.0       2.0042237883465
 3600.0       1.9984965401738
 3650.0       1.9927556974862
 3700.0       1.9870020334059
 3750.0       1.9812350927048
 3800.0       1.9754555981435
 3850.0       1.9696636688203
 3900.0       1.9638593071362
 3950.0       1.9580425334335
 4000.0       1.9522136437704
 4050.0       1.9463724159075
 4100.0       1.9405199058655
 4150.0       1.9346560515576
 4200.0       1.9287801819834
 4250.0       1.9228938655332
 4300.0       1.9169954995400
 4350.0       1.9110860396577
 4400.0       1.9051653967672
 4450.0       1.8992337496751
 4500.0       1.8932933483017
 4550.0       1.8873404653400
 4600.0       1.8813762571967
 4650.0       1.8754025477445
 4700.0       1.8694184049067
 4750.0       1.8634250324693
 4800.0       1.8574208029886
 4850.0       1.8514064950907
 4900.0       1.8453823549620
 4950.0       1.8393483812698
 5000.0       1.8332986728648
# P= 604.000000 GPa
    0.0       2.3484976915088
   50.0       2.3475751020901
  100.0       2.3455350603874
  150.0       2.3430046988314
  200.0       2.3401527970900
  250.0       2.3370598476156
  300.0       2.3337805701306
  350.0       2.3303361227618
  400.0       2.3267587765190
  450.0       2.3230587048866
  500.0       2.3192559149946
  550.0       2.3153562761233
  600.0       2.3113714742305
  650.0       2.3073077263037
  700.0       2.3031283082751
  750.0       2.2989228443842
  800.0       2.2946538463046
  850.0       2.2903651993375
  900.0       2.2859817324401
  950.0       2.2815432987186
 1000.0       2.2770562526164
 1050.0       2.2725205985278
 1100.0       2.2679406231582
 1150.0       2.2633176825239
 1200.0       2.2586520083791
 1250.0       2.2539462646269
 1300.0       2.2492041610157
 1350.0       2.2444241265889
 1400.0       2.2396084653612
 1450.0       2.2347602913200
 1500.0       2.2298850938446
 1550.0       2.2249748431295
 1600.0       2.2200318291665
 1650.0       2.2150521852795
 1700.0       2.2100529523517
 1750.0       2.2050146851482
 1800.0       2.1999563986401
 1850.0       2.1948712590889
 1900.0       2.1897605805028
 1950.0       2.1846250848063
 2000.0       2.1794656723046
 2050.0       2.1742826857070
 2100.0       2.1690751890376
 2150.0       2.1638456026273
 2200.0       2.1585948161375
 2250.0       2.1533208193531
 2300.0       2.1480261839111
 2350.0       2.1427096467451
 2400.0       2.1373757987669
 2450.0       2.1320202759146
 2500.0       2.1266439730231
 2550.0       2.1212462319466
 2600.0       2.1158405521315
 2650.0       2.1104044735867
 2700.0       2.1049538963749
 2750.0       2.0994864366179
 2800.0       2.0940003332352
 2850.0       2.0884995565905
 2900.0       2.0829813884325
 2950.0       2.0774460444706
 3000.0       2.0718956490818
 3050.0       2.0663292178449
 3100.0       2.0607474888876
 3150.0       2.0551495437160
 3200.0       2.0495364844416
 3250.0       2.0439084820535
 3300.0       2.0382657869117
 3350.0       2.0326086049692
 3400.0       2.0269371636132
 3450.0       2.0212515468243
 3500.0       2.0155511274107
 3550.0       2.0098381158500
 3600.0       2.0041116045388
 3650.0       1.9983715505255
 3700.0       1.9926186776259
 3750.0       1.9868525559369
 3800.0       1.9810738502627
 3850.0       1.9752827074469
 3900.0       1.9694791366087
 3950.0       1.9636631483717
 4000.0       1.9578350469396
 4050.0       1.9519946570090
 4100.0       1.9461429346887
 4150.0       1.9402798571108
 4200.0       1.9344047766319
 4250.0       1.9285193126328
 4300.0       1.9226217450028
 4350.0       1.9167130819686
 4400.0       1.9107932356203
 4450.0       1.9048623799976
 4500.0       1.8989228396187
 4550.0       1.8929707605041
 4600.0       1.8870073019740
 4650.0       1.8810343932001
 4700.0       1.8750510519404
 4750.0       1.8690587054796
 4800.0       1.8630552841631
 4850.0       1.8570417928151
 4900.0       1.8510184703981
 4950.0       1.8449853154656
 5000.0       1.8389362726851
# P= 606.000000 GPa
    0.0       2.3540499704915
   50.0       2.3531279099851
  100.0       2.3510886447713
  150.0       2.3485590376415
  200.0       2.3457078547051
  250.0       2.3426156446054
  300.0       2.3393372083484
  350.0       2.3358935291262
  400.0       2.3323169279185
  450.0       2.3286176060755
  500.0       2.3248155362778
  550.0       2.3209166526673
  600.0       2.3169326128371
  650.0       2.3128696232870
  700.0       2.3086889776623
  750.0       2.3044842553232
  800.0       2.3002160157385
  850.0       2.2959301555310
  900.0       2.2915474655655
  950.0       2.2871098124339
 1000.0       2.2826235713197
 1050.0       2.2780886770649
 1100.0       2.2735094819391
 1150.0       2.2688872818504
 1200.0       2.2642223869159
 1250.0       2.2595174178373
 1300.0       2.2547762062973
 1350.0       2.2499968366023
 1400.0       2.2451819522166
 1450.0       2.2403345250204
 1500.0       2.2354605833825
 1550.0       2.2305511110070
 1600.0       2.2256091605157
 1650.0       2.2206299269308
 1700.0       2.2156317527563
 1750.0       2.2105937087916
 1800.0       2.2055361881575
 1850.0       2.2004518262026
 1900.0       2.1953419053685
 1950.0       2.1902071997564
 2000.0       2.1850485574177
 2050.0       2.1798663430484
 2100.0       2.1746596318354
 2150.0       2.1694308212205
 2200.0       2.1641808448888
 2250.0       2.1589076351830
 2300.0       2.1536137836636
 2350.0       2.1482980036973
 2400.0       2.1429650094367
 2450.0       2.1376102776745
 2500.0       2.1322347197466
 2550.0       2.1268377414001
 2600.0       2.1214329217027
 2650.0       2.1159975246866
 2700.0       2.1105476769207
 2750.0       2.1050809547233
 2800.0       2.0995956454971
 2850.0       2.0940956212000
 2900.0       2.0885782394371
 2950.0       2.0830436849602
 3000.0       2.0774940674702
 3050.0       2.0719284218234
 3100.0       2.0663475004774
 3150.0       2.0607503458499
 3200.0       2.0551380756725
 3250.0       2.0495108619173
 3300.0       2.0438689567892
 3350.0       2.0382125649703
 3400.0       2.0325419143678
 3450.0       2.0268570853473
 3500.0       2.0211574179305
 3550.0       2.0154451956629
 3600.0       2.0097194214789
 3650.0       2.0039801530522
 3700.0       1.9982280681662
 3750.0       1.9924627605297
 3800.0       1.9866848407485
 3850.0       1.9808944816394
 3900.0       1.9750916986001
 3950.0       1.9692764931043
 4000.0       1.9634491770286
 4050.0       1.9576096190805
 4100.0       1.9517586817215
 4150.0       1.9458963788567
 4200.0       1.9400220846341
 4250.0       1.9341374666664
 4300.0       1.9282406940933
 4350.0       1.9223328247261
 4400.0       1.9164137717472
 4450.0       1.9104837047184
 4500.0       1.9045450187845
 4550.0       1.8985937400025
 4600.0       1.8926310305925
 4650.0       1.8866589192248
 4700.0       1.8806763762157
 4750.0       1.8746850397958
 4800.0       1.8686824230752
 4850.0       1.8626697442486
 4900.0       1.8566472354818
 4950.0       1.8506148952064
 5000.0       1.8445665214954
# P= 608.000000 GPa
    0.0       2.3595952593095
   50.0       2.3586737263152
  100.0       2.3566352303905
  150.0       2.3541063747569
  200.0       2.3512559119120
  250.0       2.3481644398333
  300.0       2.3448868342906
  350.0       2.3414439185508
  400.0       2.3378680613238
  450.0       2.3341694865273
  500.0       2.3303681381955
  550.0       2.3264700070694
  600.0       2.3224867263313
  650.0       2.3184244927137
  700.0       2.3142427988656
  750.0       2.3100388155881
  800.0       2.3057713303890
  850.0       2.3014880708936
  900.0       2.2971061539493
  950.0       2.2926692765679
 1000.0       2.2881838338233
 1050.0       2.2836496967946
 1100.0       2.2790712777439
 1150.0       2.2744498178225
 1200.0       2.2697856978060
 1250.0       2.2650814994578
 1300.0       2.2603411660613
 1350.0       2.2555624672375
 1400.0       2.2507483557277
 1450.0       2.2459016745040
 1500.0       2.2410289451108
 1550.0       2.2361202484796
 1600.0       2.2311793338359
 1650.0       2.2262005372335
 1700.0       2.2212033956262
 1750.0       2.2161656164029
 1800.0       2.2111088591545
 1850.0       2.2060252712680
 1900.0       2.2009161063791
 1950.0       2.1957821864894
 2000.0       2.1906243117533
 2050.0       2.1854428669771
 2100.0       2.1802369372336
 2150.0       2.1750088993892
 2200.0       2.1697597277562
 2250.0       2.1644873011623
 2300.0       2.1591942300179
 2350.0       2.1538792055270
 2400.0       2.1485470565750
 2450.0       2.1431931119396
 2500.0       2.1378182982446
 2550.0       2.1324220799997
 2600.0       2.1270181130369
 2650.0       2.1215834007544
 2700.0       2.1161342828479
 2750.0       2.1106682981934
 2800.0       2.1051837786690
 2850.0       2.0996845058867
 2900.0       2.0941679070859
 2950.0       2.0886341383060
 3000.0       2.0830852960459
 3050.0       2.0775204327708
 3100.0       2.0719403143698
 3150.0       2.0663439466856
 3200.0       2.0607324621516
 3250.0       2.0551060336315
 3300.0       2.0494649150544
 3350.0       2.0438093099164
 3400.0       2.0381394466156
 3450.0       2.0324554021174
 3500.0       2.0267564856901
 3550.0       2.0210450494297
 3600.0       2.0153200125909
 3650.0       2.0095815266873
 3700.0       2.0038302266738
 3750.0       1.9980657281942
 3800.0       1.9922885913338
 3850.0       1.9864990131477
 3900.0       1.9806970148823
 3950.0       1.9748825894189
 4000.0       1.9690560558442
 4050.0       1.9632173240136
 4100.0       1.9573671688722
 4150.0       1.9515056387045
 4200.0       1.9456321279175
 4250.0       1.9397483496553
 4300.0       1.9338523688609
 4350.0       1.9279452900046
 4400.0       1.9220270272465
 4450.0       1.9160977459543
 4500.0       1.9101599080105
 4550.0       1.9042094260786
 4600.0       1.8982474652646
 4650.0       1.8922761480577
 4700.0       1.8862943999996
 4750.0       1.8803040579748
 4800.0       1.8743022423142
 4850.0       1.8682903720225
 4900.0       1.8622686728869
 4950.0       1.8562371432085
 5000.0       1.8501894418987
# P= 610.000000 GPa
    0.0       2.3651335771389
   50.0       2.3642125702549
  100.0       2.3621748365507
  150.0       2.3596467295092
  200.0       2.3567969879649
  250.0       2.3537062525409
  300.0       2.3504294674083
  350.0       2.3469873105545
  400.0       2.3434121962342
  450.0       2.3397143657629
  500.0       2.3359137401909
  550.0       2.3320163587955
  600.0       2.3280338342059
  650.0       2.3239723540907
  700.0       2.3197897872246
  750.0       2.3155865405422
  800.0       2.3113198056787
  850.0       2.3070389650693
  900.0       2.3026578172835
  950.0       2.2982217108831
 1000.0       2.2937370600019
 1050.0       2.2892036776089
 1100.0       2.2846260305188
 1150.0       2.2800053103511
 1200.0       2.2753419610172
 1250.0       2.2706385295047
 1300.0       2.2658990606070
 1350.0       2.2611210386042
 1400.0       2.2563076960520
 1450.0       2.2514617599031
 1500.0       2.2465902001400
 1550.0       2.2416822766720
 1600.0       2.2367423708599
 1650.0       2.2317640372419
 1700.0       2.2267679025858
 1750.0       2.2217304285881
 1800.0       2.2166744322503
 1850.0       2.2115916149409
 1900.0       2.2064832041878
 1950.0       2.2013500657134
 2000.0       2.1961929560331
 2050.0       2.1910122782299
 2100.0       2.1858071260158
 2150.0       2.1805798579422
 2200.0       2.1753314856292
 2250.0       2.1700598382265
 2300.0       2.1647675439462
 2350.0       2.1594532732015
 2400.0       2.1541219612959
 2450.0       2.1487687998697
 2500.0       2.1433947296486
 2550.0       2.1379992688915
 2600.0       2.1325961474015
 2650.0       2.1271621229404
 2700.0       2.1217137352535
 2750.0       2.1162484880819
 2800.0       2.1107647538612
 2850.0       2.1052662317361
 2900.0       2.0997504124973
 2950.0       2.0942174256677
 3000.0       2.0886693559847
 3050.0       2.0831052718909
 3100.0       2.0775259518283
 3150.0       2.0719303675223
 3200.0       2.0663196652104
 3250.0       2.0606940185588
 3300.0       2.0550536831031
 3350.0       2.0493988612359
 3400.0       2.0437297818177
 3450.0       2.0380465186242
 3500.0       2.0323483521583
 3550.0       2.0266376986479
 3600.0       2.0209133993250
 3650.0       2.0151756929051
 3700.0       2.0094251746481
 3750.0       2.0036614804926
 3800.0       1.9978851236017
 3850.0       1.9920963235723
 3900.0       1.9862951070792
 3950.0       1.9804814589554
 4000.0       1.9746557050456
 4050.0       1.9688177935510
 4100.0       1.9629684179002
 4150.0       1.9571076584149
 4200.0       1.9512349282610
 4250.0       1.9453519834707
 4300.0       1.9394567912040
 4350.0       1.9335504997268
 4400.0       1.9276330240654
 4450.0       1.9217045256708
 4500.0       1.9157675293572
 4550.0       1.9098178408246
 4600.0       1.9038566280516
 4650.0       1.8978861017869
 4700.0       1.8919051454081
 4750.0       1.8859157824205
 4800.0       1.8799147643160
 4850.0       1.8739036986137
 4900.0       1.8678828051314
 4950.0       1.8618520820325
 5000.0       1.8558050563437
# P= 612.000000 GPa
    0.0       2.3706649430250
   50.0       2.3697444608470
  100.0       2.3677074824241
  150.0       2.3651801210959
  200.0       2.3623311019851
  250.0       2.3592411018374
  300.0       2.3559651270203
  350.0       2.3525237245243
  400.0       2.3489493520173
  450.0       2.3452522631715
  500.0       2.3414523615757
  550.0       2.3375557271794
  600.0       2.3335739558209
  650.0       2.3295132267911
  700.0       2.3253299579630
  750.0       2.3211274454318
  800.0       2.3168614569115
  850.0       2.3125828575675
  900.0       2.3082024751260
  950.0       2.3037671350077
 1000.0       2.2992832695959
 1050.0       2.2947506392656
 1100.0       2.2901737600754
 1150.0       2.2855537792123
 1200.0       2.2808911963818
 1250.0       2.2761885278575
 1300.0       2.2714499100939
 1350.0       2.2666725706735
 1400.0       2.2618599932086
 1450.0       2.2570148012134
 1500.0       2.2521443694391
 1550.0       2.2472372165676
 1600.0       2.2422982931746
 1650.0       2.2373204478689
 1700.0       2.2323252951149
 1750.0       2.2272881658139
 1800.0       2.2222329279238
 1850.0       2.2171508777364
 1900.0       2.2120432193055
 1950.0       2.2069108579948
 2000.0       2.2017545108376
 2050.0       2.1965745974035
 2100.0       2.1913702188256
 2150.0       2.1861437175479
 2200.0       2.1808961392559
 2250.0       2.1756252671701
 2300.0       2.1703337462792
 2350.0       2.1650202275463
 2400.0       2.1596897445703
 2450.0       2.1543373624799
 2500.0       2.1489640349452
 2550.0       2.1435693290770
 2600.0       2.1381670459195
 2650.0       2.1327337122519
