# T (K)               Helmholtz Free Energy (Ry.)
# V=  42.2446000000000
    0.00       0.6164268439523
   50.00       0.6154901532269
  100.00       0.6134272988047
  150.00       0.6108765971080
  200.00       0.6080070905168
  250.00       0.6048949916230
  300.00       0.6015903786052
  350.00       0.5981249396969
  400.00       0.5945287155537
  450.00       0.5908090624577
  500.00       0.5869891131342
  550.00       0.5830699073892
  600.00       0.5790653900745
  650.00       0.5749823095949
  700.00       0.5709034709716
  750.00       0.5666783447445
  800.00       0.5623887096193
  850.00       0.5579614665268
  900.00       0.5535581635899
  950.00       0.5490995821425
 1000.00       0.5445913029607
 1050.00       0.5400369946677
 1100.00       0.5354374441533
 1150.00       0.5307972423160
 1200.00       0.5261121686197
 1250.00       0.5213873519662
 1300.00       0.5166203222131
 1350.00       0.5118272385727
 1400.00       0.5069927561659
 1450.00       0.5021275239401
 1500.00       0.4972106410342
 1550.00       0.4922824423105
 1600.00       0.4873077845448
 1650.00       0.4823272527714
 1700.00       0.4772972629823
 1750.00       0.4722664791687
 1800.00       0.4671908881048
 1850.00       0.4620879786141
 1900.00       0.4569605482044
 1950.00       0.4518069679303
 2000.00       0.4466305058339
 2050.00       0.4414304955220
 2100.00       0.4362054174418
 2150.00       0.4309588148770
 2200.00       0.4256897398337
 2250.00       0.4203984435369
 2300.00       0.4150867851549
 2350.00       0.4097543413008
 2400.00       0.4044009995373
 2450.00       0.3990285137285
 2500.00       0.3936370817419
 2550.00       0.3882234623358
 2600.00       0.3827989012042
 2650.00       0.3773501514956
 2700.00       0.3718853382542
 2750.00       0.3664034473624
 2800.00       0.3609008444676
 2850.00       0.3553853166440
 2900.00       0.3498512253820
 2950.00       0.3442999164874
 3000.00       0.3387341248812
 3050.00       0.3331521221648
 3100.00       0.3275541896079
 3150.00       0.3219406957635
 3200.00       0.3163122442162
 3250.00       0.3106689668774
 3300.00       0.3050110547469
 3350.00       0.2993387549344
 3400.00       0.2936522793879
 3450.00       0.2879518198190
 3500.00       0.2822377306994
 3550.00       0.2765100218601
 3600.00       0.2707704999919
 3650.00       0.2650160320772
 3700.00       0.2592487817832
 3750.00       0.2534676029703
 3800.00       0.2476747825724
 3850.00       0.2418696888899
 3900.00       0.2360521463031
 3950.00       0.2302224199616
 4000.00       0.2243806018034
 4050.00       0.2185252995141
 4100.00       0.2126600808060
 4150.00       0.2067838861323
 4200.00       0.2008954544084
 4250.00       0.1949951991136
 4300.00       0.1890842630595
 4350.00       0.1831623679229
 4400.00       0.1772293895124
 4450.00       0.1712856150954
 4500.00       0.1653316806104
 4550.00       0.1593666062972
 4600.00       0.1533914669826
 4650.00       0.1474058224899
 4700.00       0.1414098196779
 4750.00       0.1354000116060
 4800.00       0.1293840406924
 4850.00       0.1233579191629
 4900.00       0.1173220460841
 4950.00       0.1112764212230
 5000.00       0.1052180616018
# V=  42.1777979797980
    0.00       0.6189408428455
   50.00       0.6180048315188
  100.00       0.6159431894570
  150.00       0.6133934960766
  200.00       0.6105247828556
  250.00       0.6074136101437
  300.00       0.6041104137108
  350.00       0.6006460656332
  400.00       0.5970507600064
  450.00       0.5933320979528
  500.00       0.5895129422276
  550.00       0.5855947352388
  600.00       0.5815912317553
  650.00       0.5775091397743
  700.00       0.5734216711462
  750.00       0.5691975574396
  800.00       0.5649090207070
  850.00       0.5604924086890
  900.00       0.5560901682301
  950.00       0.5516326869273
 1000.00       0.5471256008066
 1050.00       0.5425722827608
 1100.00       0.5379738030060
 1150.00       0.5333344867114
 1200.00       0.5286504854921
 1250.00       0.5239267222241
 1300.00       0.5191612367755
 1350.00       0.5143687177478
 1400.00       0.5095352888480
 1450.00       0.5046709661364
 1500.00       0.4997570576880
 1550.00       0.4948298559963
 1600.00       0.4898573651185
 1650.00       0.4848764198774
 1700.00       0.4798485351927
 1750.00       0.4748166367643
 1800.00       0.4697420277330
 1850.00       0.4646401478079
 1900.00       0.4595136666451
 1950.00       0.4543611563915
 2000.00       0.4491856816993
 2050.00       0.4439866632043
 2100.00       0.4387626349128
 2150.00       0.4335170394292
 2200.00       0.4282490874678
 2250.00       0.4229588390173
 2300.00       0.4176482108579
 2350.00       0.4123167091279
 2400.00       0.4069646260938
 2450.00       0.4015931883200
 2500.00       0.3962026524274
 2550.00       0.3907900066845
 2600.00       0.3853666737684
 2650.00       0.3799186295204
 2700.00       0.3744546611005
 2750.00       0.3689736377503
 2800.00       0.3634720973083
 2850.00       0.3579574781286
 2900.00       0.3524244096611
 2950.00       0.3468741364303
 3000.00       0.3413093346853
 3050.00       0.3357283457058
 3100.00       0.3301314920293
 3150.00       0.3245190265776
 3200.00       0.3188915969037
 3250.00       0.3132493386394
 3300.00       0.3075924482085
 3350.00       0.3019211689518
 3400.00       0.2962357141995
 3450.00       0.2905362658054
 3500.00       0.2848230871094
 3550.00       0.2790963914265
 3600.00       0.2733577311588
 3650.00       0.2676042657526
 3700.00       0.2618380222095
 3750.00       0.2560579239734
 3800.00       0.2502661020803
 3850.00       0.2444619991611
 3900.00       0.2386454575561
 3950.00       0.2328167180497
 4000.00       0.2269758928885
 4050.00       0.2211217095628
 4100.00       0.2152574792197
 4150.00       0.2093822433886
 4200.00       0.2034948025949
 4250.00       0.1975956887586
 4300.00       0.1916857628383
 4350.00       0.1857648727921
 4400.00       0.1798328983516
 4450.00       0.1738901152208
 4500.00       0.1679373282819
 4550.00       0.1619732711007
 4600.00       0.1559990239290
 4650.00       0.1500143871843
 4700.00       0.1440193936592
 4750.00       0.1380111029310
 4800.00       0.1319961501198
 4850.00       0.1259710645656
 4900.00       0.1199362285766
 4950.00       0.1138916419175
 5000.00       0.1078340002231
# V=  42.1109959595960
    0.00       0.6214657975414
   50.00       0.6205304661434
  100.00       0.6184700251856
  150.00       0.6159213385383
  200.00       0.6130534265144
  250.00       0.6099431818901
  300.00       0.6066413837410
  350.00       0.6031781211158
  400.00       0.5995837366464
  450.00       0.5958660645014
  500.00       0.5920477102980
  550.00       0.5881305008719
  600.00       0.5841280096349
  650.00       0.5800469057241
  700.00       0.5759512116249
  750.00       0.5717281088159
  800.00       0.5674406651591
  850.00       0.5630342773694
  900.00       0.5586330958704
  950.00       0.5541767092027
 1000.00       0.5496708069185
 1050.00       0.5451184784202
 1100.00       0.5405210654543
 1150.00       0.5358826387318
 1200.00       0.5311997057652
 1250.00       0.5264769924060
 1300.00       0.5217130270590
 1350.00       0.5169210901955
 1400.00       0.5120887113417
 1450.00       0.5072253011186
 1500.00       0.5023142826970
 1550.00       0.4973880777175
 1600.00       0.4924177029676
 1650.00       0.4874364027843
 1700.00       0.4824105755362
 1750.00       0.4773776506781
 1800.00       0.4723040234026
 1850.00       0.4672031706710
 1900.00       0.4620776398536
 1950.00       0.4569261956027
 2000.00       0.4517517079259
 2050.00       0.4465536807174
 2100.00       0.4413306989855
 2150.00       0.4360861092866
 2200.00       0.4308192743328
 2250.00       0.4255300706003
 2300.00       0.4202204703828
 2350.00       0.4148899120557
 2400.00       0.4095390760459
 2450.00       0.4041686832766
 2500.00       0.3987790467017
 2550.00       0.3933673741267
 2600.00       0.3879452599524
 2650.00       0.3824979318856
 2700.00       0.3770348136705
 2750.00       0.3715546624121
 2800.00       0.3660541804508
 2850.00       0.3605404729052
 2900.00       0.3550084252541
 2950.00       0.3494591850347
 3000.00       0.3438953726484
 3050.00       0.3383153958677
 3100.00       0.3327196168254
 3150.00       0.3271081775291
 3200.00       0.3214817677813
 3250.00       0.3158405267588
 3300.00       0.3101846560852
 3350.00       0.3045143954893
 3400.00       0.2988299596313
 3450.00       0.2931315208996
 3500.00       0.2874192552258
 3550.00       0.2816935711201
 3600.00       0.2759557772997
 3650.00       0.2702033132257
 3700.00       0.2644380751268
 3750.00       0.2586590529739
 3800.00       0.2528682286069
 3850.00       0.2470651158203
 3900.00       0.2412495741369
 3950.00       0.2354218209767
 4000.00       0.2295819880640
 4050.00       0.2237289175696
 4100.00       0.2178656750664
 4150.00       0.2119913988556
 4200.00       0.2061049483307
 4250.00       0.2002069691102
 4300.00       0.1942980518805
 4350.00       0.1883781657066
 4400.00       0.1824471940355
 4450.00       0.1765054015053
 4500.00       0.1705537551867
 4550.00       0.1645907133897
 4600.00       0.1586173617438
 4650.00       0.1526337314180
 4700.00       0.1466397457611
 4750.00       0.1406329497621
 4800.00       0.1346190133036
 4850.00       0.1285949612158
 4900.00       0.1225611597657
 4950.00       0.1165176087015
 5000.00       0.1104606947666
# V=  42.0441939393939
    0.00       0.6240017484705
   50.00       0.6230670975126
  100.00       0.6210078465102
  150.00       0.6184601650182
  200.00       0.6155930619236
  250.00       0.6124837472612
  300.00       0.6091833292784
  350.00       0.6057211467728
  400.00       0.6021276860626
  450.00       0.5984110026932
  500.00       0.5945934578399
  550.00       0.5906772447844
  600.00       0.5866757642148
  650.00       0.5825956479391
  700.00       0.5784921285972
  750.00       0.5742700350693
  800.00       0.5699836792168
  850.00       0.5655871131160
  900.00       0.5611869870853
  950.00       0.5567316895900
 1000.00       0.5522269620046
 1050.00       0.5476756223504
 1100.00       0.5430792722337
 1150.00       0.5384417390589
 1200.00       0.5337598701541
 1250.00       0.5290382032525
 1300.00       0.5242757340499
 1350.00       0.5194843967044
 1400.00       0.5146530644609
 1450.00       0.5097905696582
 1500.00       0.5048823577178
 1550.00       0.4999571491236
 1600.00       0.4949888402690
 1650.00       0.4900072430356
 1700.00       0.4849834260515
 1750.00       0.4799495620008
 1800.00       0.4748769161959
 1850.00       0.4697770882995
 1900.00       0.4646525089028
 1950.00       0.4595021266683
 2000.00       0.4543286256107
 2050.00       0.4491315891530
 2100.00       0.4439096507744
 2150.00       0.4386660655659
 2200.00       0.4334003415986
 2250.00       0.4281121794774
 2300.00       0.4228036049340
 2350.00       0.4174739912635
 2400.00       0.4121243906858
 2450.00       0.4067550399113
 2500.00       0.4013663058322
 2550.00       0.3959556059233
 2600.00       0.3905347011069
 2650.00       0.3850880998164
 2700.00       0.3796258371208
 2750.00       0.3741465624450
 2800.00       0.3686471350227
 2850.00       0.3631343420586
 2900.00       0.3576033132552
 2950.00       0.3520551034112
 3000.00       0.3464922798751
 3050.00       0.3409133137602
 3100.00       0.3353186051395
 3150.00       0.3297081897735
 3200.00       0.3240827980139
 3250.00       0.3184425724082
 3300.00       0.3127877195586
 3350.00       0.3071184757374
 3400.00       0.3014350568821
 3450.00       0.2957376263053
 3500.00       0.2900262762129
 3550.00       0.2843016021105
 3600.00       0.2785646795216
 3650.00       0.2728132156046
 3700.00       0.2670489816456
 3750.00       0.2612710311180
 3800.00       0.2554812032972
 3850.00       0.2496790800079
 3900.00       0.2438645371856
 3950.00       0.2380377698763
 4000.00       0.2321989284601
 4050.00       0.2263469647178
 4100.00       0.2204847095234
 4150.00       0.2146113936911
 4200.00       0.2087259327691
 4250.00       0.2028290813828
 4300.00       0.1969211714042
 4350.00       0.1910022878854
 4400.00       0.1850723177846
 4450.00       0.1791315151650
 4500.00       0.1731810026027
 4550.00       0.1672189744489
 4600.00       0.1612465216645
 4650.00       0.1552638964310
 4700.00       0.1492709172270
 4750.00       0.1432655935703
 4800.00       0.1372526717215
 4850.00       0.1312296506061
 4900.00       0.1251968811593
 4950.00       0.1191543630991
 5000.00       0.1130981866405
# V=  41.9773919191919
    0.00       0.6265487361622
   50.00       0.6256147661371
  100.00       0.6235566940512
  150.00       0.6210100161425
  200.00       0.6181437296132
  250.00       0.6150353467547
  300.00       0.6117362910086
  350.00       0.6082751833368
  400.00       0.6046826489476
  450.00       0.6009669532215
  500.00       0.5971502254492
  550.00       0.5932350075737
  600.00       0.5892345360983
  650.00       0.5851554070161
  700.00       0.5810444582610
  750.00       0.5768233724041
  800.00       0.5725380991310
  850.00       0.5681509565806
  900.00       0.5637518825533
  950.00       0.5592976688162
 1000.00       0.5547941068806
 1050.00       0.5502437553632
 1100.00       0.5456484641875
 1150.00       0.5410118284810
 1200.00       0.5363310194815
 1250.00       0.5316103956127
 1300.00       0.5268493988483
 1350.00       0.5220586781731
 1400.00       0.5172283891303
 1450.00       0.5123668126360
 1500.00       0.5074613245363
 1550.00       0.5025371119924
 1600.00       0.4975708193399
 1650.00       0.4925889823017
 1700.00       0.4875671289148
 1750.00       0.4825324119403
 1800.00       0.4774607473122
 1850.00       0.4723619419068
 1900.00       0.4672383149830
 1950.00       0.4620889908107
 2000.00       0.4569164759689
 2050.00       0.4517204297204
 2100.00       0.4464995315123
 2150.00       0.4412569495027
 2200.00       0.4359923305551
 2250.00       0.4307052069610
 2300.00       0.4253976558372
 2350.00       0.4200689880514
 2400.00       0.4147206114290
 2450.00       0.4093522996608
 2500.00       0.4039644712091
 2550.00       0.3985547434580
 2600.00       0.3931350387075
 2650.00       0.3876891746602
 2700.00       0.3822277727289
 2750.00       0.3767493790656
 2800.00       0.3712510022720
 2850.00       0.3657391267926
 2900.00       0.3602091148783
 2950.00       0.3546619327911
 3000.00       0.3491000975904
 3050.00       0.3435221406133
 3100.00       0.3379284982361
 3150.00       0.3323191045881
 3200.00       0.3266947288880
 3250.00       0.3210555168826
 3300.00       0.3154016799332
 3350.00       0.3097334510093
 3400.00       0.3040510472743
 3450.00       0.2983546233494
 3500.00       0.2926441913580
 3550.00       0.2869205256904
 3600.00       0.2811844790530
 3650.00       0.2754340141190
 3700.00       0.2696707829980
 3750.00       0.2638938996751
 3800.00       0.2581050674195
 3850.00       0.2523039329871
 3900.00       0.2464903879652
 3950.00       0.2406646060054
 4000.00       0.2348267553299
 4050.00       0.2289758923154
 4100.00       0.2231146238927
 4150.00       0.2172422691770
 4200.00       0.2113577971874
 4250.00       0.2054620669160
 4300.00       0.1995551627530
 4350.00       0.1936372806739
 4400.00       0.1877083109454
 4450.00       0.1817684975419
 4500.00       0.1758191119353
 4550.00       0.1698580956911
 4600.00       0.1638865450555
 4650.00       0.1579049235902
 4700.00       0.1519129494276
 4750.00       0.1459090759584
 4800.00       0.1398971669837
 4850.00       0.1338751743619
 4900.00       0.1278434343987
 4950.00       0.1218019467680
 5000.00       0.1157465173839
# V=  41.9105898989899
    0.00       0.6291068012440
   50.00       0.6281735126253
  100.00       0.6261166085295
  150.00       0.6235709326379
  200.00       0.6207054702116
  250.00       0.6175980209662
  300.00       0.6143003097192
  350.00       0.6108402716431
  400.00       0.6072486660964
  450.00       0.6035339568819
  500.00       0.5997180538222
  550.00       0.5958038299378
  600.00       0.5918043659897
  650.00       0.5877262236527
  700.00       0.5836082368201
  750.00       0.5793881570311
  800.00       0.5751039611602
  850.00       0.5707258485170
  900.00       0.5663278230560
  950.00       0.5618746877125
 1000.00       0.5573722824684
 1050.00       0.5528229183766
 1100.00       0.5482286822667
 1150.00       0.5435929478930
 1200.00       0.5389131946775
 1250.00       0.5341936104434
 1300.00       0.5294340626678
 1350.00       0.5246439756090
 1400.00       0.5198147263840
 1450.00       0.5149540710419
 1500.00       0.5100512250667
 1550.00       0.5051280082308
 1600.00       0.5001636826379
 1650.00       0.4951816623796
 1700.00       0.4901617264396
 1750.00       0.4851262418210
 1800.00       0.4800555580675
 1850.00       0.4749577728236
 1900.00       0.4698350994010
 1950.00       0.4646868293693
 2000.00       0.4595153003329
 2050.00       0.4543202437464
 2100.00       0.4491003825499
 2150.00       0.4438588024505
 2200.00       0.4385952826114
 2250.00       0.4333091944831
 2300.00       0.4280026645380
 2350.00       0.4226749438393
 2400.00       0.4173277798135
 2450.00       0.4119605040851
 2500.00       0.4065735843448
 2550.00       0.4011648282365
 2600.00       0.3957463143539
 2650.00       0.3903011978860
 2700.00       0.3848406618924
 2750.00       0.3793631536096
 2800.00       0.3738658235663
 2850.00       0.3683548684305
 2900.00       0.3628258714566
 2950.00       0.3572797145250
 3000.00       0.3517188671392
 3050.00       0.3461419177773
 3100.00       0.3405493375007
 3150.00       0.3349409633712
 3200.00       0.3293176018118
 3250.00       0.3236794015986
 3300.00       0.3180265786355
 3350.00       0.3123593627407
 3400.00       0.3066779722528
 3450.00       0.3009825534819
 3500.00       0.2952730420704
 3550.00       0.2895503832749
 3600.00       0.2838152172438
 3650.00       0.2780657501200
 3700.00       0.2723035205379
 3750.00       0.2665277000367
 3800.00       0.2607398623644
 3850.00       0.2549397161439
 3900.00       0.2491271678617
 3950.00       0.2433023707435
 4000.00       0.2374655100495
 4050.00       0.2316157417940
 4100.00       0.2257554596000
 4150.00       0.2198840667186
 4200.00       0.2140005829866
 4250.00       0.2081059671744
 4300.00       0.2022000673957
 4350.00       0.1962831855424
 4400.00       0.1903552149896
 4450.00       0.1844163901038
 4500.00       0.1784681247167
 4550.00       0.1725081186561
 4600.00       0.1665374734074
 4650.00       0.1605568543891
 4700.00       0.1545658838602
 4750.00       0.1485634386613
 4800.00       0.1425525408324
 4850.00       0.1365315742414
 4900.00       0.1305008612584
 4950.00       0.1244604014993
 5000.00       0.1184057286672
# V=  41.8437878787879
    0.00       0.6316759844403
   50.00       0.6307433776824
  100.00       0.6286876307653
  150.00       0.6261429553309
  200.00       0.6232783244449
  250.00       0.6201718105885
  300.00       0.6168754262992
  350.00       0.6134164526299
  400.00       0.6098257784054
  450.00       0.6061120545720
  500.00       0.6022969837554
  550.00       0.5983837526748
  600.00       0.5943852946932
  650.00       0.5903081386466
  700.00       0.5861835004823
  750.00       0.5819644251653
  800.00       0.5776813015681
  850.00       0.5733118297814
  900.00       0.5689148494778
  950.00       0.5644627872137
 1000.00       0.5599615297958
 1050.00       0.5554131524148
 1100.00       0.5508199675284
 1150.00       0.5461851382950
 1200.00       0.5415064367781
 1250.00       0.5367878888084
 1300.00       0.5320297668345
 1350.00       0.5272403301279
 1400.00       0.5224121173652
 1450.00       0.5175523859738
 1500.00       0.5126521013513
 1550.00       0.5077298798732
