# T (K)               Helmholtz Free Energy (Ry.)
# V=  42.2446000000000
    0.00       0.6163832448860
   50.00       0.6154436442697
  100.00       0.6133851591271
  150.00       0.6108338016638
  200.00       0.6079606893392
  250.00       0.6048479570854
  300.00       0.6015441440461
  350.00       0.5980813726825
  400.00       0.5944824929893
  450.00       0.5907645986755
  500.00       0.5869409623299
  550.00       0.5830221894828
  600.00       0.5790169499535
  650.00       0.5749324639597
  700.00       0.5707748379079
  750.00       0.5665493038382
  800.00       0.5622603947852
  850.00       0.5579120761595
  900.00       0.5535078461307
  950.00       0.5490508136487
 1000.00       0.5445437600029
 1050.00       0.5399891880461
 1100.00       0.5353893620257
 1150.00       0.5307463401612
 1200.00       0.5260620015479
 1250.00       0.5213380685707
 1300.00       0.5165761257272
 1350.00       0.5117776355522
 1400.00       0.5069439521792
 1450.00       0.5020763329648
 1500.00       0.4971759485062
 1550.00       0.4922438913231
 1600.00       0.4872811834185
 1650.00       0.4822887828930
 1700.00       0.4772675897575
 1750.00       0.4722184510613
 1800.00       0.4671421654338
 1850.00       0.4620394871213
 1900.00       0.4569111295873
 1950.00       0.4517577687334
 2000.00       0.4465800457895
 2050.00       0.4413785699157
 2100.00       0.4361539205492
 2150.00       0.4309066495283
 2200.00       0.4256372830185
 2250.00       0.4203463232632
 2300.00       0.4150342501794
 2350.00       0.4097015228136
 2400.00       0.4043485806750
 2450.00       0.3989758449561
 2500.00       0.3935837196552
 2550.00       0.3881725926077
 2600.00       0.3827428364372
 2650.00       0.3772948094334
 2700.00       0.3718288563638
 2750.00       0.3663453092245
 2800.00       0.3608444879377
 2850.00       0.3553267009978
 2900.00       0.3497922460739
 2950.00       0.3442414105689
 3000.00       0.3386744721424
 3050.00       0.3330916991974
 3100.00       0.3274933513358
 3150.00       0.3218796797843
 3200.00       0.3162509277934
 3250.00       0.3106073310111
 3300.00       0.3049491178340
 3350.00       0.2992765097371
 3400.00       0.2935897215833
 3450.00       0.2878889619155
 3500.00       0.2821744332315
 3550.00       0.2764463322427
 3600.00       0.2707048501191
 3650.00       0.2649501727199
 3700.00       0.2591824808117
 3750.00       0.2534019502754
 3800.00       0.2476087523012
 3850.00       0.2418030535741
 3900.00       0.2359850164491
 3950.00       0.2301547991183
 4000.00       0.2243125557683
 4050.00       0.2184584367310
 4100.00       0.2125925886261
 4150.00       0.2067151544970
 4200.00       0.2008262739401
 4250.00       0.1949260832277
 4300.00       0.1890147154258
 4350.00       0.1830923005053
 4400.00       0.1771589654494
 4450.00       0.1712148343551
 4500.00       0.1652600285303
 4550.00       0.1592946665875
 4600.00       0.1533188645317
 4650.00       0.1473327358463
 4700.00       0.1413363915739
 4750.00       0.1353299403944
 4800.00       0.1293134886996
 4850.00       0.1232871406647
 4900.00       0.1172509983169
 4950.00       0.1112051616011
 5000.00       0.1051497284429
# V=  41.5023000000000
    0.00       0.6448116200045
   50.00       0.6438787732106
  100.00       0.6418298316690
  150.00       0.6392881222297
  200.00       0.6364246843954
  250.00       0.6333216372425
  300.00       0.6300275146079
  350.00       0.6265744366758
  400.00       0.6229852523017
  450.00       0.6192770545621
  500.00       0.6154631156665
  550.00       0.6115540409040
  600.00       0.6075584999334
  650.00       0.6034837128612
  700.00       0.5993357860147
  750.00       0.5951199513763
  800.00       0.5908407419369
  850.00       0.5865021230741
  900.00       0.5821075929317
  950.00       0.5776602604395
 1000.00       0.5731629068705
 1050.00       0.5686180350646
 1100.00       0.5640279092586
 1150.00       0.5593945876630
 1200.00       0.5547199493660
 1250.00       0.5500057167464
 1300.00       0.5452534742966
 1350.00       0.5404646845469
 1400.00       0.5356407016273
 1450.00       0.5307827828910
 1500.00       0.5258920989324
 1550.00       0.5209697422691
 1600.00       0.5160167349016
 1650.00       0.5110340349290
 1700.00       0.5060225423605
 1750.00       0.5009831042439
 1800.00       0.4959165192074
 1850.00       0.4908235414962
 1900.00       0.4857048845727
 1950.00       0.4805612243377
 2000.00       0.4753932020204
 2050.00       0.4702014267800
 2100.00       0.4649864780533
 2150.00       0.4597489076778
 2200.00       0.4544892418185
 2250.00       0.4492079827185
 2300.00       0.4439056102941
 2350.00       0.4385825835918
 2400.00       0.4332393421200
 2450.00       0.4278763070713
 2500.00       0.4224938824433
 2550.00       0.4170924560714
 2600.00       0.4116724005789
 2650.00       0.4062340742553
 2700.00       0.4007778218677
 2750.00       0.3953039754123
 2800.00       0.3898128548109
 2850.00       0.3843047685579
 2900.00       0.3787800143221
 2950.00       0.3732388795064
 3000.00       0.3676816417702
 3050.00       0.3621085695163
 3100.00       0.3565199223466
 3150.00       0.3509159514877
 3200.00       0.3452969001900
 3250.00       0.3396630041013
 3300.00       0.3340144916184
 3350.00       0.3283515842159
 3400.00       0.3226744967567
 3450.00       0.3169834377838
 3500.00       0.3112786097948
 3550.00       0.3055602095012
 3600.00       0.2998284280727
 3650.00       0.2940834513686
 3700.00       0.2883254601555
 3750.00       0.2825546303141
 3800.00       0.2767711330347
 3850.00       0.2709751350022
 3900.00       0.2651667985717
 3950.00       0.2593462819350
 4000.00       0.2535137392788
 4050.00       0.2476693209351
 4100.00       0.2418131735234
 4150.00       0.2359454400872
 4200.00       0.2300662602227
 4250.00       0.2241757702024
 4300.00       0.2182741030921
 4350.00       0.2123613888628
 4400.00       0.2064377544977
 4450.00       0.2005033240936
 4500.00       0.1945582189586
 4550.00       0.1886025577050
 4600.00       0.1826364563380
 4650.00       0.1766600283407
 4700.00       0.1706733847560
 4750.00       0.1646766342635
 4800.00       0.1586698832552
 4850.00       0.1526532359063
 4900.00       0.1466267942438
 4950.00       0.1405906582127
 5000.00       0.1345449257387
# V=  40.8275000000000
    0.00       0.6718292750579
   50.00       0.6709024233798
  100.00       0.6688619026354
  150.00       0.6663287033122
  200.00       0.6634737981270
  250.00       0.6603792925850
  300.00       0.6570937159934
  350.00       0.6536491865997
  400.00       0.6500685522953
  450.00       0.6463689056246
  500.00       0.6425635184794
  550.00       0.6386629959489
  600.00       0.6346760075595
  650.00       0.6306097733271
  700.00       0.6264703995151
  750.00       0.6222631180594
  800.00       0.6179924619166
  850.00       0.6136623964387
  900.00       0.6092764197497
  950.00       0.6048376407638
 1000.00       0.6003488407424
 1050.00       0.5958125225156
 1100.00       0.5912309503125
 1150.00       0.5866061823377
 1200.00       0.5819400976743
 1250.00       0.5772344186968
 1300.00       0.5724907298946
 1350.00       0.5677104937949
 1400.00       0.5628950645257
 1450.00       0.5580456994380
 1500.00       0.5531635691249
 1550.00       0.5482497661024
 1600.00       0.5433053123702
 1650.00       0.5383311660261
 1700.00       0.5333282270787
 1750.00       0.5282973425753
 1800.00       0.5232393111433
 1850.00       0.5181548870277
 1900.00       0.5130447836905
 1950.00       0.5079096770319
 2000.00       0.5027502082811
 2050.00       0.4975669865971
 2100.00       0.4923605914164
 2150.00       0.4871315745766
 2200.00       0.4818804622425
 2250.00       0.4766077566571
 2300.00       0.4713139377367
 2350.00       0.4659994645276
 2400.00       0.4606647765385
 2450.00       0.4553102949618
 2500.00       0.4499364237952
 2550.00       0.4445435508741
 2600.00       0.4391320488218
 2650.00       0.4337022759279
 2700.00       0.4282545769596
 2750.00       0.4227892839131
 2800.00       0.4173067167102
 2850.00       0.4118071838455
 2900.00       0.4062909829878
 2950.00       0.4007584015401
 3000.00       0.3952097171618
 3050.00       0.3896451982559
 3100.00       0.3840651044243
 3150.00       0.3784696868938
 3200.00       0.3728591889146
 3250.00       0.3672338461350
 3300.00       0.3615938869515
 3350.00       0.3559395328390
 3400.00       0.3502709986605
 3450.00       0.3445884929590
 3500.00       0.3388922182322
 3550.00       0.3331823711916
 3600.00       0.3274591430072
 3650.00       0.3217227195382
 3700.00       0.3159732815513
 3750.00       0.3102110049273
 3800.00       0.3044360608567
 3850.00       0.2986486160243
 3900.00       0.2928488327854
 3950.00       0.2870368693318
 4000.00       0.2812128798504
 4050.00       0.2753770146731
 4100.00       0.2695294204197
 4150.00       0.2636702401336
 4200.00       0.2577996134111
 4250.00       0.2519176765248
 4300.00       0.2460245625405
 4350.00       0.2401204014294
 4400.00       0.2342053201747
 4450.00       0.2282794428733
 4500.00       0.2223428908334
 4550.00       0.2163957826672
 4600.00       0.2104382343801
 4650.00       0.2044703594554
 4700.00       0.1984922689358
 4750.00       0.1925040715011
 4800.00       0.1865058735434
 4850.00       0.1804977792378
 4900.00       0.1744798906115
 4950.00       0.1684523076096
 5000.00       0.1624151281578
# V=  40.2201000000000
    0.00       0.6985524779840
   50.00       0.6976364396299
  100.00       0.6956106905140
  150.00       0.6930923823390
  200.00       0.6902523985916
  250.00       0.6871728266217
  300.00       0.6839021896612
  350.00       0.6804726033514
  400.00       0.6769069142807
  450.00       0.6732222142703
  500.00       0.6694317747788
  550.00       0.6655462006199
  600.00       0.6615741611368
  650.00       0.6575228762191
  700.00       0.6533984520398
  750.00       0.6492061204689
  800.00       0.6449504144139
  850.00       0.6406352991889
  900.00       0.6362642728890
  950.00       0.6318404444055
 1000.00       0.6273665949813
 1050.00       0.6228452274320
 1100.00       0.6182786059748
 1150.00       0.6136687888042
 1200.00       0.6090176549951
 1250.00       0.6043269269155
 1300.00       0.5995981890487
 1350.00       0.5948329039173
 1400.00       0.5900324256449
 1450.00       0.5851980115792
 1500.00       0.5803308323100
 1550.00       0.5754319803509
 1600.00       0.5705024776991
 1650.00       0.5655432824505
 1700.00       0.5605552946119
 1750.00       0.5555393612290
 1800.00       0.5504962809280
 1850.00       0.5454268079526
 1900.00       0.5403316557636
 1950.00       0.5352115002606
 2000.00       0.5300669826716
 2050.00       0.5248987121551
 2100.00       0.5197072681467
 2150.00       0.5144932024836
 2200.00       0.5092570413298
 2250.00       0.5039992869280
 2300.00       0.4987204191942
 2350.00       0.4934208971740
 2400.00       0.4881011603759
 2450.00       0.4827616299918
 2500.00       0.4774027100194
 2550.00       0.4720247882936
 2600.00       0.4666282374375
 2650.00       0.4612134157405
 2700.00       0.4557806679697
 2750.00       0.4503303261208
 2800.00       0.4448627101157
 2850.00       0.4393781284488
 2900.00       0.4338768787887
 2950.00       0.4283592485383
 3000.00       0.4228255153570
 3050.00       0.4172759476474
 3100.00       0.4117108050116
 3150.00       0.4061303386761
 3200.00       0.4005347918911
 3250.00       0.3949244003049
 3300.00       0.3892993923137
 3350.00       0.3836599893926
 3400.00       0.3780064064044
 3450.00       0.3723388518920
 3500.00       0.3666575283532
 3550.00       0.3609626324993
 3600.00       0.3552543555004
 3650.00       0.3495328832155
 3700.00       0.3437983964114
 3750.00       0.3380510709689
 3800.00       0.3322910780783
 3850.00       0.3265185844246
 3900.00       0.3207337523628
 3950.00       0.3149367400849
 4000.00       0.3091277017777
 4050.00       0.3033067877731
 4100.00       0.2974741446908
 4150.00       0.2916299155742
 4200.00       0.2857742400198
 4250.00       0.2799072543000
 4300.00       0.2740290914806
 4350.00       0.2681398815328
 4400.00       0.2622397514398
 4450.00       0.2563288252985
 4500.00       0.2504072244171
 4550.00       0.2444750674078
 4600.00       0.2385324702760
 4650.00       0.2325795465050
 4700.00       0.2266164071373
 4750.00       0.2206431608531
 4800.00       0.2146599140441
 4850.00       0.2086667708857
 4900.00       0.2026638334050
 4950.00       0.1966512015469
 5000.00       0.1906289732373
# V=  39.6128000000000
    0.00       0.7249043532681
   50.00       0.7239969919698
  100.00       0.7219832862002
  150.00       0.7194771354314
  200.00       0.7166493380368
  250.00       0.7135819640390
  300.00       0.7103235308672
  350.00       0.7069061516710
  400.00       0.7033526717922
  450.00       0.6996801823585
  500.00       0.6959019544128
  550.00       0.6920285925040
  600.00       0.6880687657989
  650.00       0.6840296940649
  700.00       0.6799174833878
  750.00       0.6757373655736
  800.00       0.6714938734819
  850.00       0.6671909723901
  900.00       0.6628321603648
  950.00       0.6584205462748
 1000.00       0.6539589113451
 1050.00       0.6494497583768
 1100.00       0.6448953515748
 1150.00       0.6402977491243
 1200.00       0.6356588300917
 1250.00       0.6309803168382
 1300.00       0.6262637938413
 1350.00       0.6215107236187
 1400.00       0.6167224602897
 1450.00       0.6119002611984
 1500.00       0.6070452969314
 1550.00       0.6021586599995
 1600.00       0.5972413723975
 1650.00       0.5922943922193
 1700.00       0.5873186194698
 1750.00       0.5823149011931
 1800.00       0.5772840360138
 1850.00       0.5722267781743
 1900.00       0.5671438411343
 1950.00       0.5620359007924
 2000.00       0.5569035983756
 2050.00       0.5517475430416
 2100.00       0.5465683142252
 2150.00       0.5413664637628
 2200.00       0.5361425178181
 2250.00       0.5308969786328
 2300.00       0.5256303261226
 2350.00       0.5203430193327
 2400.00       0.5150354977710
 2450.00       0.5097081826291
 2500.00       0.5043614779043
 2550.00       0.4989957714311
 2600.00       0.4936114358324
 2650.00       0.4882088293973
 2700.00       0.4827882968924
 2750.00       0.4773501703136
 2800.00       0.4718947695822
 2850.00       0.4664224031925
 2900.00       0.4609333688128
 2950.00       0.4554279538461
 3000.00       0.4499064359512
 3050.00       0.4443690835311
 3100.00       0.4388161561872
 3150.00       0.4332479051461
 3200.00       0.4276645736581
 3250.00       0.4220663973709
 3300.00       0.4164536046810
 3350.00       0.4108264170631
 3400.00       0.4051850493801
 3450.00       0.3995297101747
 3500.00       0.3938606019446
 3550.00       0.3881779214011
 3600.00       0.3824818597141
 3650.00       0.3767726027427
 3700.00       0.3710503312534
 3750.00       0.3653152211272
 3800.00       0.3595674435541
 3850.00       0.3538071652191
 3900.00       0.3480345484773
 3950.00       0.3422497515204
 4000.00       0.3364529285354
 4050.00       0.3306442298540
 4100.00       0.3248238020958
 4150.00       0.3189917883043
 4200.00       0.3131483280759
 4250.00       0.3072935576829
 4300.00       0.3014276101912
 4350.00       0.2955506155718
 4400.00       0.2896627008080
 4450.00       0.2837639899966
 4500.00       0.2778546044458
 4550.00       0.2719346627678
 4600.00       0.2660042809678
 4650.00       0.2600635725292
 4700.00       0.2541126484947
 4750.00       0.2481516175440
 4800.00       0.2421805860692
 4850.00       0.2361996582454
 4900.00       0.2302089360998
 4950.00       0.2242085195774
 5000.00       0.2181985066038
# V=  39.0054000000000
    0.00       0.7509400263430
   50.00       0.7500351675495
  100.00       0.7480253900779
  150.00       0.7455232481528
  200.00       0.7426994801162
  250.00       0.7396361437206
  300.00       0.7363817522814
  350.00       0.7329684171806
  400.00       0.7294189828749
  450.00       0.7257505400000
  500.00       0.7219763593034
  550.00       0.7181070451459
  600.00       0.7141512665689
  650.00       0.7101162432529
  700.00       0.7060080812217
  750.00       0.7018320122358
  800.00       0.6975925691206
  850.00       0.6932937171275
  900.00       0.6889389543027
  950.00       0.6845313894989
 1000.00       0.6800738039284
 1050.00       0.6755687003817
 1100.00       0.6710183430555
 1150.00       0.6664247901276
 1200.00       0.6617899206590
 1250.00       0.6571154570055
 1300.00       0.6524029836409
 1350.00       0.6476539630789
 1400.00       0.6428697494361
 1450.00       0.6380516000538
 1500.00       0.6332006855165
 1550.00       0.6283180983327
 1600.00       0.6234048604959
 1650.00       0.6184619300982
 1700.00       0.6134902071431
 1750.00       0.6084905386736
 1800.00       0.6034637233133
 1850.00       0.5984105153037
 1900.00       0.5933316281035
 1950.00       0.5882277376106
 2000.00       0.5830994850513
 2050.00       0.5779474795827
 2100.00       0.5727723006391
 2150.00       0.5675745000563
 2200.00       0.5623546039975
 2250.00       0.5571131147042
 2300.00       0.5518505120915
 2350.00       0.5465672552043
 2400.00       0.5412637835502
 2450.00       0.5359405183206
 2500.00       0.5305978635124
 2550.00       0.5252362069598
 2600.00       0.5198559212856
 2650.00       0.5144573647787
 2700.00       0.5090408822054
 2750.00       0.5036068055614
 2800.00       0.4981554547679
 2850.00       0.4926871383191
 2900.00       0.4872021538831
 2950.00       0.4817007888626
 3000.00       0.4761833209165
 3050.00       0.4706500184475
 3100.00       0.4651011410571
 3150.00       0.4595369399717
 3200.00       0.4539576584413
 3250.00       0.4483635321138
 3300.00       0.4427547893855
 3350.00       0.4371316517309
 3400.00       0.4314943340130
 3450.00       0.4258430447744
 3500.00       0.4201779865126
 3550.00       0.4144993559391
 3600.00       0.4088073442234
 3650.00       0.4031021372247
 3700.00       0.3973839157096
 3750.00       0.3916528555588
 3800.00       0.3859091279623
 3850.00       0.3801528996052
 3900.00       0.3743843328423
 3950.00       0.3686035858656
 4000.00       0.3628108128618
 4050.00       0.3570061641626
 4100.00       0.3511897863877
 4150.00       0.3453618225804
 4200.00       0.3395224123371
 4250.00       0.3336716919301
 4300.00       0.3278097944253
 4350.00       0.3219368497938
 4400.00       0.3160529850185
 4450.00       0.3101583241964
 4500.00       0.3042529886357
 4550.00       0.2983370969486
 4600.00       0.2924107651402
 4650.00       0.2864741066939
 4700.00       0.2805272326523
 4750.00       0.2745702516953
 4800.00       0.2686032702147
 4850.00       0.2626263923858
 4900.00       0.2566397202356
 4950.00       0.2506433537092
 5000.00       0.2446373907323
# V=  38.4656000000000
    0.00       0.7767040421632
   50.00       0.7758024615675
  100.00       0.7737976612636
  150.00       0.7713005836086
  200.00       0.7684819020080
  250.00       0.7654236609558
  300.00       0.7621743693232
  350.00       0.7587661365828
  400.00       0.7552218062352
  450.00       0.7515584683847
  500.00       0.7477893934593
  550.00       0.7439251856168
  600.00       0.7399745137630
  650.00       0.7359445974843
  700.00       0.7318415427377
  750.00       0.7276705812343
  800.00       0.7234362457626
  850.00       0.7191425015456
  900.00       0.7147928466078
  950.00       0.7103903897844
 1000.00       0.7059379122738
 1050.00       0.7014379168552
 1100.00       0.6968926677162
 1150.00       0.6923042230269
 1200.00       0.6876744618418
 1250.00       0.6830051065117
 1300.00       0.6782977415056
 1350.00       0.6735538293335
 1400.00       0.6687747241086
 1450.00       0.6639616831694
 1500.00       0.6591158770979
 1550.00       0.6542383984006
