#T (K)    alpha (10^(-5) K^(-1))
#P= 0.000000 GPa
    0.0       0.0000000000000
  100.0       0.7502780513967
  200.0       1.5813572415768
  300.0       2.0958940027047
  400.0       2.3510461724899
  500.0       2.4992303833604
  600.0       2.5940839365129
  700.0       2.6639253947030
  800.0       2.7203207408702
  900.0       2.7692663337460
 1000.0       2.8138206619129
 1100.0       2.8558167192001
 1200.0       2.8963021981135
 1300.0       2.9358958929157
 1400.0       2.9750672077523
 1500.0       3.0141090499277
 1600.0       3.0532179760217
 1700.0       3.0925379397645
 1800.0       3.1321513991853
 1900.0       3.1721856615075
 2000.0       3.2126531573469
 2100.0       3.2536164717950
 2200.0       3.2951397558398
 2300.0       3.3372070076310
 2400.0       3.3798699064641
 2500.0       3.4231031553369
 2600.0       3.4669404920094
 2700.0       3.5114386920867
 2800.0       3.5564517862347
 2900.0       3.6022339261772
 3000.0       3.6485906074457
 3100.0       3.6955231514822
 3200.0       3.7431217794663
 3300.0       3.7911499408123
 3400.0       3.8401676379745
 3500.0       3.8895845062387
 3600.0       3.9396307627116
 3700.0       3.9904754880977
 3800.0       4.0418670063954
 3900.0       4.0933414763217
 4000.0       4.1461028852802
 4100.0       4.1993526008238
 4200.0       4.2526338604307
 4300.0       4.3071930085817
 4400.0       4.3618309022130
 4500.0       4.4173166738265
 4600.0       4.4729029722825
 4700.0       4.5300045958283
 4800.0       4.5866308432795
 4900.0       4.6439961583616
 5000.0       4.7024915133744
 5100.0       4.7602715112667
 5200.0       4.8194227305426
 5300.0       4.8792321826432
 5400.0       4.9387175592546
 5500.0       5.0001282275629
 5600.0       5.0610181414929
 5700.0       5.1201936535120
 5800.0       5.1833500927212
 5900.0       5.2460209241872
 6000.0       5.3032704241923

#P= 1.000000 GPa
    0.0       0.0000000000000
  100.0       0.7410383085263
  200.0       1.5626602985419
  300.0       2.0720015263420
  400.0       2.3249898970728
  500.0       2.4720223518632
  600.0       2.5660995449423
  700.0       2.6352858415947
  800.0       2.6910547010002
  900.0       2.7393755114458
 1000.0       2.7832899527641
 1100.0       2.8246132302854
 1200.0       2.8644211170194
 1300.0       2.9033416670094
 1400.0       2.9418413489437
 1500.0       2.9802142784182
 1600.0       3.0186580729713
 1700.0       3.0573147343387
 1800.0       3.0962707457147
 1900.0       3.1356502020600
 2000.0       3.1754698626998
 2100.0       3.2157876917653
 2200.0       3.2566718018837
 2300.0       3.2981040522307
 2400.0       3.3401374302516
 2500.0       3.3827497146131
 2600.0       3.4259707214346
 2700.0       3.4698568696225
 2800.0       3.5142747614402
 2900.0       3.5594522035414
 3000.0       3.6052188047892
 3100.0       3.6515738954079
 3200.0       3.6985916776306
 3300.0       3.7460815696786
 3400.0       3.7945282392295
 3500.0       3.8433957725347
 3600.0       3.8929162236567
 3700.0       3.9432104315084
 3800.0       3.9940720295525
 3900.0       4.0450872446406
 4000.0       4.0973168263444
 4100.0       4.1500630895623
 4200.0       4.2029082567049
 4300.0       4.2569624864315
 4400.0       4.3111601560586
 4500.0       4.3661936174808
 4600.0       4.4213700561258
 4700.0       4.4780076531825
 4800.0       4.5342496404617
 4900.0       4.5912304469519
 5000.0       4.6493066541701
 5100.0       4.7067682705448
 5200.0       4.7655488319308
 5300.0       4.8249942660184
 5400.0       4.8841791354874
 5500.0       4.9452049798425
 5600.0       5.0057866926132
 5700.0       5.0648095415365
 5800.0       5.1275982107034
 5900.0       5.1899669443551
 6000.0       5.2472933637772

#P= 2.000000 GPa
    0.0       0.0000000000000
  100.0       0.7319681268676
  200.0       1.5443075684464
  300.0       2.0485566823226
  400.0       2.2994194288736
  500.0       2.4453201087511
  600.0       2.5386476637521
  700.0       2.6071884058702
  800.0       2.6623498219684
  900.0       2.7100610080595
 1000.0       2.7533554173255
 1100.0       2.7940403206528
 1200.0       2.8331743972551
 1300.0       2.8714142122599
 1400.0       2.9092371423148
 1500.0       2.9469351551233
 1600.0       2.9847072863789
 1700.0       3.0226944801119
 1800.0       3.0609860591734
 1900.0       3.0997037144105
 2000.0       3.1388678919570
 2100.0       3.1785328247695
 2200.0       3.2187699157675
 2300.0       3.2595590991219
 2400.0       3.3009548582330
 2500.0       3.3429372898814
 2600.0       3.3855332119043
 2700.0       3.4287984150001
 2800.0       3.4726109758101
 2900.0       3.5171751012785
 3000.0       3.5623419557646
 3100.0       3.6081090801746
 3200.0       3.6545366205625
 3300.0       3.7014752506700
 3400.0       3.7493413261518
 3500.0       3.7976488615045
 3600.0       3.8466311038834
 3700.0       3.8963650642719
 3800.0       3.9466856763406
 3900.0       3.9972261629638
 4000.0       4.0489140049438
 4100.0       4.1011453918609
 4200.0       4.1535391004536
 4300.0       4.2070780389465
 4400.0       4.2608215200062
 4500.0       4.3153898121998
 4600.0       4.3701418303730
 4700.0       4.4263038683756
 4800.0       4.4821466832611
 4900.0       4.5387283145295
 5000.0       4.5963730047839
 5100.0       4.6534994746192
 5200.0       4.7118956147253
 5300.0       4.7709632193833
 5400.0       4.8298316394931
 5500.0       4.8904605152408
 5600.0       4.9507192119442
 5700.0       5.0095689336486
 5800.0       5.0719781982205
 5900.0       5.1340311825056
 6000.0       5.1914072493607

#P= 3.000000 GPa
    0.0       0.0000000000000
  100.0       0.7230680977658
  200.0       1.5262944402272
  300.0       2.0255390368032
  400.0       2.2743226386329
  500.0       2.4191160280768
  600.0       2.5117044910963
  700.0       2.5796247242685
  800.0       2.6341891534108
  900.0       2.6813079922176
 1000.0       2.7239991059037
 1100.0       2.7640637773719
 1200.0       2.8025592503392
 1300.0       2.8401244641247
 1400.0       2.8772628069068
 1500.0       2.9142808275541
 1600.0       2.9513748733971
 1700.0       2.9886866300244
 1800.0       3.0263070305784
 1900.0       3.0643561151312
 2000.0       3.1028574085869
 2100.0       3.1418622363589
 2200.0       3.1814446631029
 2300.0       3.2215829402595
 2400.0       3.2623331624012
 2500.0       3.3036770927232
 2600.0       3.3456393730425
 2700.0       3.3882749366068
 2800.0       3.4314722821123
 2900.0       3.4754146230393
 3000.0       3.5199722555573
 3100.0       3.5651411268652
 3200.0       3.6109691773256
 3300.0       3.6573438477357
 3400.0       3.7046199013511
 3500.0       3.7523569393091
 3600.0       3.8007887927871
 3700.0       3.8499528896438
 3800.0       3.8997216065307
 3900.0       3.9497721597107
 4000.0       4.0009084473441
 4100.0       4.0526136636959
 4200.0       4.1045407698588
 4300.0       4.1575541290885
 4400.0       4.2108296183921
 4500.0       4.2649200085922
 4600.0       4.3192331906342
 4700.0       4.3749082228663
 4800.0       4.4303370829646
 4900.0       4.4865049902567
 5000.0       4.5437058632343
 5100.0       4.6004805488501
 5200.0       4.6584785726688
 5300.0       4.7171545995211
 5400.0       4.7756907039264
 5500.0       4.8359104947336
 5600.0       4.8958314053882
 5700.0       4.9544876244281
 5800.0       5.0165058439458
 5900.0       5.0782294304505
 6000.0       5.1356279806879

#P= 4.000000 GPa
    0.0       0.0000000000000
  100.0       0.7143282940797
  200.0       1.5086111460735
  300.0       2.0029466389845
  400.0       2.2496821883454
  500.0       2.3933934794268
  600.0       2.4852640152464
  700.0       2.5525713948159
  800.0       2.6065626407080
  900.0       2.6531012001717
 1000.0       2.6952047981876
 1100.0       2.7346671765620
 1200.0       2.7725409218464
 1300.0       2.8094670576579
 1400.0       2.8459296995024
 1500.0       2.8822594006312
 1600.0       2.9186701662390
 1700.0       2.9553004127420
 1800.0       2.9922432070950
 1900.0       3.0296171562047
 2000.0       3.0674484183871
 2100.0       3.1057861336468
 2200.0       3.1447064524973
 2300.0       3.1841862120655
 2400.0       3.2242831605016
 2500.0       3.2649801829698
 2600.0       3.3063004647942
 2700.0       3.3482978953873
 2800.0       3.3908703893380
 2900.0       3.4341826306947
 3000.0       3.4781217605021
 3100.0       3.5226823218969
 3200.0       3.5679017853618
 3300.0       3.6137000997021
 3400.0       3.6603768449730
 3500.0       3.7075330546890
 3600.0       3.7554025683857
 3700.0       3.8039873028275
 3800.0       3.8531933766707
 3900.0       3.9027390688789
 4000.0       3.9533140892494
 4100.0       4.0044819761023
 4200.0       4.0559275683564
 4300.0       4.1084051475792
 4400.0       4.1611990108067
 4500.0       4.2147989001280
 4600.0       4.2686589867311
 4700.0       4.3238356561176
 4800.0       4.3788359156988
 4900.0       4.4345756806137
 5000.0       4.4913205092952
 5100.0       4.5477269099401
 5200.0       4.6053131996712
 5300.0       4.6635839732575
 5400.0       4.7217719813396
 5500.0       4.7815706043369
 5600.0       4.8411390144929
 5700.0       4.8995814573433
 5800.0       4.9611969948754
 5900.0       5.0225775454889
 6000.0       5.0799715208824

#P= 5.000000 GPa
    0.0       0.0000000000000
  100.0       0.7057487393732
  200.0       1.4912457027894
  300.0       1.9807603453707
  400.0       2.2254939351818
  500.0       2.3681388974736
  600.0       2.4593069945423
  700.0       2.5260229141165
  800.0       2.5794477992706
  900.0       2.6254287880225
 1000.0       2.6669586782627
 1100.0       2.7058331724687
 1200.0       2.7431041984724
 1300.0       2.7794071977955
 1400.0       2.8152296546825
 1500.0       2.8508825041257
 1600.0       2.8866013510442
 1700.0       2.9225451577497
 1800.0       2.9588039037436
 1900.0       2.9954964468240
 2000.0       3.0326507615149
 2100.0       3.0703145649785
 2200.0       3.1085655328511
 2300.0       3.1473793931260
 2400.0       3.1868155132265
 2500.0       3.2268574656509
 2600.0       3.2675275940422
 2700.0       3.3088786013687
 2800.0       3.3508168588457
 2900.0       3.3934908401371
 3000.0       3.4368023838918
 3100.0       3.4807448126320
 3200.0       3.5253467454826
 3300.0       3.5705566150045
 3400.0       3.6166249101776
 3500.0       3.6631901328700
 3600.0       3.7104855908484
 3700.0       3.7584815846051
 3800.0       3.8071144338086
 3900.0       3.8561406238700
 4000.0       3.9061447692666
 4100.0       3.9567643081467
 4200.0       4.0077137154718
 4300.0       4.0596454070918
 4400.0       4.1119441861284
 4500.0       4.1650411167572
 4600.0       4.2184340106183
 4700.0       4.2731010565621
 4800.0       4.3276582180750
 4900.0       4.3829555580621
 5000.0       4.4392321967052
 5100.0       4.4952539597459
 5200.0       4.5524149810421
 5300.0       4.6102669063132
 5400.0       4.6680911347343
 5500.0       4.7274565480304
 5600.0       4.7866578072068
 5700.0       4.8448663145607
 5800.0       4.9060675399083
 5900.0       4.9670914389565
 6000.0       5.0244539274048

#P= 6.000000 GPa
    0.0       0.0000000000000
  100.0       0.6973238418538
  200.0       1.4741965420152
  300.0       1.9589739476370
  400.0       2.2017364862902
  500.0       2.3433447221265
  600.0       2.4338231507786
  700.0       2.4999583637112
  800.0       2.5528389984543
  900.0       2.5982695005145
 1000.0       2.6392470151215
 1100.0       2.6775493355968
 1200.0       2.7142308000879
 1300.0       2.7499306970653
 1400.0       2.7851279603511
 1500.0       2.8201391957933
 1600.0       2.8551803607253
 1700.0       2.8904289873174
 1800.0       2.9259985517140
 1900.0       2.9620033588783
 2000.0       2.9984741359762
 2100.0       3.0354574115494
 2200.0       3.0730319931704
 2300.0       3.1111728014435
 2400.0       3.1499407218533
 2500.0       3.1893196881506
 2600.0       3.2293317116779
 2700.0       3.2700282102832
 2800.0       3.3113231007777
 2900.0       3.3533508175414
 3000.0       3.3960258919449
 3100.0       3.4393406026806
 3200.0       3.4833162172496
 3300.0       3.5279258669759
 3400.0       3.5733767173193
 3500.0       3.6193409704269
 3600.0       3.6660508972667
 3700.0       3.7134488958757
 3800.0       3.7614981091528
 3900.0       3.8099904502345
 4000.0       3.8594142227885
 4100.0       3.9094745399541
 4200.0       3.9599133403128
 4300.0       4.0112891338042
 4400.0       4.0630795549116
 4500.0       4.1156612157414
 4600.0       4.1685729910813
 4700.0       4.2227192553800
 4800.0       4.2768189749096
 4900.0       4.3316597542903
 5000.0       4.3874561438090
 5100.0       4.4430770742345
 5200.0       4.4997993874101
 5300.0       4.5572189571746
 5400.0       4.6146638263814
 5500.0       4.6735840368376
 5600.0       4.7324035682526
 5700.0       4.7903581092895
 5800.0       4.8511334089796
 5900.0       4.9117870673895
 6000.0       4.9690913032547

#P= 7.000000 GPa
    0.0       0.0000000000000
  100.0       0.6890481793113
  200.0       1.4574475766077
  300.0       1.9375775913916
  400.0       2.1784071860334
  500.0       2.3189906063120
  600.0       2.4088015867855
  700.0       2.4743698573927
  800.0       2.5267144654988
  900.0       2.5716171457745
 1000.0       2.6120499482930
 1100.0       2.6498001479547
 1200.0       2.6859095388620
 1300.0       2.7210183885845
 1400.0       2.7556112190463
 1500.0       2.7899952115985
 1600.0       2.8243935069410
 1700.0       2.8589638668732
 1800.0       2.8938353482459
 1900.0       2.9291473865251
 2000.0       2.9649280000846
 2100.0       3.0012244116814
 2200.0       3.0381157539738
 2300.0       3.0755765942660
 2400.0       3.1136691255361
 2500.0       3.1523774378617
 2600.0       3.1917236096752
 2700.0       3.2317577205942
 2800.0       3.2724003707157
 2900.0       3.3137739757599
 3000.0       3.3558038997394
 3100.0       3.3984815481728
 3200.0       3.4418222145953
 3300.0       3.4858201888594
 3400.0       3.5306447494590
 3500.0       3.5759982298892
 3600.0       3.6221113960609
 3700.0       3.6689022713826
 3800.0       3.7163576126666
 3900.0       3.7643020602162
 4000.0       3.8131360742190
 4100.0       3.8626264464425
 4200.0       3.9125404755092
 4300.0       3.9633504610524
 4400.0       4.0146194408282
 4500.0       4.0666736750996
 4600.0       4.1190905850771
 4700.0       4.1727050167137
 4800.0       4.2263331137736
 4900.0       4.2807033511283
 5000.0       4.3360075262993
 5100.0       4.3912115971777
 5200.0       4.4474818623611
 5300.0       4.5044556658743
 5400.0       4.5615057120964
 5500.0       4.6199687814943
 5600.0       4.6783920899590
 5700.0       4.7360727756149
 5800.0       4.7964105571952
 5900.0       4.8566804222662
 6000.0       4.9138998209216

#P= 8.000000 GPa
    0.0       0.0000000000000
  100.0       0.6809216563406
  200.0       1.4409975389071
  300.0       1.9165557731625
  400.0       2.1554899887646
  500.0       2.2950747342445
  600.0       2.3842239266202
  700.0       2.4492437280947
  800.0       2.5010680492810
  900.0       2.5454495926719
 1000.0       2.5853604443897
 1100.0       2.6225672671166
 1200.0       2.6581231948260
 1300.0       2.6926599899892
 1400.0       2.7266596715678
 1500.0       2.7604377860286
 1600.0       2.7942071038258
 1700.0       2.8281333404774
 1800.0       2.8623262276792
 1900.0       2.8969368172739
 2000.0       2.9320219263693
 2100.0       2.9676250648080
 2200.0       3.0038265911553
 2300.0       3.0406007596155
 2400.0       3.0780109010924
 2500.0       3.1160411394362
 2600.0       3.1547139187810
 2700.0       3.1940779705825
 2800.0       3.2340597666199
 2900.0       3.2747715709778
 3000.0       3.3161478678014
 3100.0       3.3581793535378
 3200.0       3.4008766017264
 3300.0       3.4442517697176
 3400.0       3.4884413475531
 3500.0       3.5331744347656
 3600.0       3.5786798615788
 3700.0       3.6248546147442
 3800.0       3.6717060266101
 3900.0       3.7190888465097
 4000.0       3.7673238322081
 4100.0       3.8162336904815
 4200.0       3.8656090488413
 4300.0       3.9158434216345
 4400.0       3.9665780753785
 4500.0       4.0180928859786
 4600.0       4.0700013696321
 4700.0       4.1230730312862
 4800.0       4.1762154965108
 4900.0       4.2301013717265
 5000.0       4.2849014683995
 5100.0       4.3396728302540
 5200.0       4.3954778155749
 5300.0       4.4519925465276
 5400.0       4.5086324298480
 5500.0       4.5666264823353
 5600.0       4.6246391635356
 5700.0       4.6820262586786
 5800.0       4.7419149586287
 5900.0       4.8017875224734
 6000.0       4.8588956883752

#P= 9.000000 GPa
    0.0       0.0000000000000
  100.0       0.6729356462920
  200.0       1.4248364219035
  300.0       1.8959075556304
  400.0       2.1329738982443
  500.0       2.2715778418004
  600.0       2.3600876109485
  700.0       2.4245640819428
  800.0       2.4758836898008
  900.0       2.5197617512586
 1000.0       2.5591565557643
 1100.0       2.5958424659219
 1200.0       2.6308549682774
 1300.0       2.6648367927841
 1400.0       2.6982637669134
 1500.0       2.7314467155408
 1600.0       2.7646087733009
 1700.0       2.7979044664219
 1800.0       2.8314521089460
 1900.0       2.8653833581322
 2000.0       2.8997643648082
 2100.0       2.9346689607734
 2200.0       2.9701740465604
 2300.0       3.0062551383887
 2400.0       3.0429760550040
 2500.0       3.0803210544638
 2600.0       3.1183131057459
 2700.0       3.1569996360324
 2800.0       3.1963122259753
 2900.0       3.2363546996411
 3000.0       3.2770690986650
 3100.0       3.3184455680489
 3200.0       3.3604910891389
 3300.0       3.4032326499242
 3400.0       3.4467787059630
 3500.0       3.4908819650248
 3600.0       3.5357689294186
 3700.0       3.5813186930209
 3800.0       3.6275563004610
 3900.0       3.6743640762174
 4000.0       3.7219908827195
 4100.0       3.7703098166258
 4200.0       3.8191328780051
 4300.0       3.8687819420665
 4400.0       3.9189695894279
 4500.0       3.9699331445259
 4600.0       4.0213198354907
 4700.0       4.0738379082169
 4800.0       4.1264809105411
 4900.0       4.1798687746072
 5000.0       4.2341530339626
 5100.0       4.2884760251299
 5200.0       4.3438026137477
 5300.0       4.3998450773552
 5400.0       4.4560595934836
 5500.0       4.5135728203279
 5600.0       4.5711605696843
 5700.0       4.6282345065076
 5800.0       4.6876625967448
 5900.0       4.7471244047708
 6000.0       4.8040951475349

#P= 10.000000 GPa
    0.0       0.0000000000000
  100.0       0.6650903707288
  200.0       1.4089545228840
  300.0       1.8756150882219
  400.0       2.1108544737851
  500.0       2.2484928409760
  600.0       2.3363721494496
  700.0       2.4003268538298
  800.0       2.4511478572354
  900.0       2.4945356620627
 1000.0       2.5334337984207
 1100.0       2.5696042811652
 1200.0       2.6040952332232
 1300.0       2.6375336400055
 1400.0       2.6704034583310
 1500.0       2.7030129397963
 1600.0       2.7355780106583
 1700.0       2.7682651205481
 1800.0       2.8011810208168
 1900.0       2.8344652910257
 2000.0       2.8681666688195
 2100.0       2.9023647034201
 2200.0       2.9371677144509
 2300.0       2.9725493463839
 2400.0       3.0085744424737
 2500.0       3.0452272742575
 2600.0       3.0825314728292
 2700.0       3.1205332275066
 2800.0       3.1591685233527
 2900.0       3.1985342956327
 3000.0       3.2385787338152
 3100.0       3.2792915824005
 3200.0       3.3206772301515
 3300.0       3.3627747173613
 3400.0       3.4056688681367
 3500.0       3.4491330525597
 3600.0       3.4933910913497
 3700.0       3.5383071316033
 3800.0       3.5839212457053
 3900.0       3.6301408855365
 4000.0       3.6771504834275
 4100.0       3.7248682455773
 4200.0       3.7731256636140
 4300.0       3.8221798350605
 4400.0       3.8718080068292
 4500.0       3.9222086465758
 4600.0       3.9730603789172
 4700.0       4.0250141665608
