# T (K)      B_S (GPa)
# P = 0.000000 (GPa)
    1.0     358.4748607613660
  100.0     358.6002615319893
  200.0     358.2143940499975
  300.0     358.1177836748756
  400.0     357.2792684678067
  500.0     356.4364945514963
  600.0     355.3701348170922
  700.0     354.2861063961666
  800.0     353.1635394738895
  900.0     352.0396525441449
 1000.0     350.9172994290047
 1100.0     349.8020122326111
 1200.0     348.7021856857119
 1300.0     347.6155184908433
 1400.0     346.5455716136516
 1500.0     345.4940431797842
 1600.0     344.4619726875269
 1700.0     343.4499937452342
 1800.0     342.4588709328232
 1900.0     341.4838023623479
 2000.0     340.5383651443332
 2100.0     339.6052656456259
 2200.0     338.6958452305033
 2300.0     337.8136991951969
 2400.0     336.9378999021678
 2500.0     336.1027291193351
 2600.0     335.2630022586724
 2700.0     334.4622713538603
 2800.0     333.6738817880170
 2900.0     332.8945179547714
 3000.0     332.1439611504313
 3100.0     331.4039032170622
 3200.0     330.6840512197291
 3300.0     329.9362072281700
 3400.0     329.2794842195505
 3500.0     328.6028552795663
 3600.0     327.8835979764908
 3700.0     327.3196386622800
 3800.0     326.5343032035922
 3900.0     325.9415338235127
 4000.0     325.3332747841923
 4100.0     324.6254733252587
 4200.0     324.0164946017526
 4300.0     323.4513087218132
 4400.0     322.6878717176466
 4500.0     322.1392699831724
 4600.0     321.4048384880467
 4700.0     320.8228687308581
 4800.0     320.1307422478786
 4900.0     319.4555036496436
 5000.0     318.7905082795151
 5100.0     318.1236334210175
 5200.0     317.4643764000450
 5300.0     316.8388251592168
 5400.0     316.1270922013434
 5500.0     315.5401179742977
 5600.0     314.4730317195967
 5700.0     313.6296211410535
 5800.0     313.4294564791770
 5900.0     312.3589355540839
 6000.0     311.5234442861178
# P = 1.000000 (GPa)
    1.0     361.6648399529839
  100.0     361.7861711077532
  200.0     361.3906477060272
  300.0     361.2782684891040
  400.0     360.4298114325995
  500.0     359.5773810727674
  600.0     358.5026394932967
  700.0     357.4099218359590
  800.0     356.2784520877308
  900.0     355.1455639093219
 1000.0     354.0140707238149
 1100.0     352.8887308398247
 1200.0     351.7780414834915
 1300.0     350.6799623429249
 1400.0     349.5980231245616
 1500.0     348.5341207434626
 1600.0     347.4892875706545
 1700.0     346.4642115466330
 1800.0     345.4600027867281
 1900.0     344.4715895832783
 2000.0     343.5129460605031
 2100.0     342.5660753144226
 2200.0     341.6439135112739
 2300.0     340.7481505831171
 2400.0     339.8598992893653
 2500.0     339.0121035330060
 2600.0     338.1604883962237
 2700.0     337.3477914739202
 2800.0     336.5485116813269
 2900.0     335.7575012463806
 3000.0     334.9989655583238
 3100.0     334.2480365922895
 3200.0     333.5207113742062
 3300.0     332.7659755455273
 3400.0     332.0989666468694
 3500.0     331.4165360820650
 3600.0     330.6906270379963
 3700.0     330.1199447255381
 3800.0     329.3347081753072
 3900.0     328.7394410776367
 4000.0     328.1216785879257
 4100.0     327.4187920442339
 4200.0     326.8054080450040
 4300.0     326.2381371982754
 4400.0     325.4780306556262
 4500.0     324.9307782197509
 4600.0     324.2003069192661
 4700.0     323.6149196946482
 4800.0     322.9356070913005
 4900.0     322.2574026063897
 5000.0     321.6003271769753
 5100.0     320.9351506053895
 5200.0     320.2756521213185
 5300.0     319.6490303542836
 5400.0     318.9414417658726
 5500.0     318.3508124545430
 5600.0     317.3103163199850
 5700.0     316.4687552917180
 5800.0     316.2423605821067
 5900.0     315.1856760660327
 6000.0     314.3449083904625
# P = 2.000000 (GPa)
    1.0     364.8548350939424
  100.0     364.9721449115612
  200.0     364.5670989325401
  300.0     364.4391706464943
  400.0     363.5808658297444
  500.0     362.7188548578964
  600.0     361.6359721002495
  700.0     360.5347568806446
  800.0     359.3945773447417
  900.0     358.2525147207466
 1000.0     357.1117516377402
 1100.0     355.9770629510330
 1200.0     354.8560897396877
 1300.0     353.7469488874011
 1400.0     352.6533947482691
 1500.0     351.5774034290375
 1600.0     350.5200533103217
 1700.0     349.4820948208566
 1800.0     348.4648992386733
 1900.0     347.4632430450463
 2000.0     346.4913919514007
 2100.0     345.5308523243130
 2200.0     344.5958048447883
 2300.0     343.6864298077998
 2400.0     342.7855507264280
 2500.0     341.9249631277593
 2600.0     341.0612383445605
 2700.0     340.2363663301972
 2800.0     339.4258958014802
 2900.0     338.6230711081199
 3000.0     337.8559794876173
 3100.0     337.0940258086928
 3200.0     336.3587309352828
 3300.0     335.5966867222103
 3400.0     334.9192946848290
 3500.0     334.2306283784429
 3600.0     333.4978468074016
 3700.0     332.9201663938961
 3800.0     332.1343970247317
 3900.0     331.5362810004170
 4000.0     330.9092827375736
 4100.0     330.2105483952686
 4200.0     329.5928822295888
 4300.0     329.0234429611234
 4400.0     328.2664599386448
 4500.0     327.7204516168818
 4600.0     326.9939202346116
 4700.0     326.4055679854266
 4800.0     325.7386400663403
 4900.0     325.0582275778417
 5000.0     324.4091491173479
 5100.0     323.7463995683983
 5200.0     323.0875339098585
 5300.0     322.4608628778773
 5400.0     321.7583225717797
 5500.0     321.1653474064520
 5600.0     320.1513176950965
 5700.0     319.3132086545081
 5800.0     319.0633751255790
 5900.0     318.0214746844686
 6000.0     317.1780116691792
# P = 3.000000 (GPa)
    1.0     368.0448295183896
  100.0     368.1581758087027
  200.0     367.7437417277603
  300.0     367.6004511373600
  400.0     366.7324663829429
  500.0     365.8609909309610
  600.0     364.7699881216168
  700.0     363.6605250975653
  800.0     362.5118302944913
  900.0     361.3607982393698
 1000.0     360.2106325493341
 1100.0     359.0664196687973
 1200.0     357.9358507216332
 1300.0     356.8162548263160
 1400.0     355.7114261008131
 1500.0     354.6236733237899
 1600.0     353.5540736581922
 1700.0     352.5034693331925
 1800.0     351.4734175782614
 1900.0     350.4586421462658
 2000.0     349.4736094077987
 2100.0     348.4995104990976
 2200.0     347.5514624680966
 2300.0     346.6284871769898
 2400.0     345.7148230479784
 2500.0     344.8412888638485
 2600.0     343.9652438324228
 2700.0     343.1279925879255
 2800.0     342.3060360654608
 2900.0     341.4912225383565
 3000.0     340.7150134202098
 3100.0     339.9418622500107
 3200.0     339.1981014939039
 3300.0     338.4283178658126
 3400.0     337.7404134079453
 3500.0     337.0450587866518
 3600.0     336.3051473225588
 3700.0     335.7201609558193
 3800.0     334.9332069538423
 3900.0     334.3318443896354
 4000.0     333.6958081357860
 4100.0     333.0004372952443
 4200.0     332.3785336982086
 4300.0     331.8067805124211
 4400.0     331.0526482691069
 4500.0     330.5077078740156
 4600.0     329.7850157292636
 4700.0     329.1940549132235
 4800.0     328.5390132584165
 4900.0     327.8570336188930
 5000.0     327.2159411136411
 5100.0     326.5562248530405
 5200.0     325.8987439897982
 5300.0     325.2729163592091
 5400.0     324.5762000564771
 5500.0     323.9820528852864
 5600.0     322.9942757657959
 5700.0     322.1610622440569
 5800.0     321.8903967950466
 5900.0     320.8641065821346
 6000.0     320.0203329664104
# P = 4.000000 (GPa)
    1.0     371.2348174970685
  100.0     371.3442490004787
  200.0     370.9205578608129
  300.0     370.7621332092280
  400.0     369.8845737933823
  500.0     369.0037854838821
  600.0     367.9047924001654
  700.0     366.7870855648741
  800.0     365.6301108615579
  900.0     364.4703275106217
 1000.0     363.3109670125507
 1100.0     362.1571329886966
 1200.0     361.0167539611294
 1300.0     359.8873709784138
 1400.0     358.7719260598744
 1500.0     357.6726961743620
 1600.0     356.5911613498401
 1700.0     355.5281637194661
 1800.0     354.4854208239807
 1900.0     353.4576725736786
 2000.0     352.4595126461457
 2100.0     351.4719727839690
 2200.0     350.5108400439241
 2300.0     349.5742852474543
 2400.0     348.6476989915612
 2500.0     347.7610776074690
 2600.0     346.8725145350289
 2700.0     346.0226871146020
 2800.0     345.1889570627214
 2900.0     344.3619757617435
 3000.0     343.5761053537487
 3100.0     342.7915679816641
 3200.0     342.0388479505698
 3300.0     341.2608827981225
 3400.0     340.5623079317457
 3500.0     339.8597971870586
 3600.0     339.1124656173308
 3700.0     338.5198360612009
 3800.0     337.7310286911464
 3900.0     337.1259797249741
 4000.0     336.4810372735500
 4100.0     335.7882184359103
 4200.0     335.1620482462544
 4300.0     334.5877770934827
 4400.0     333.8361608202754
 4500.0     333.2920449364760
 4600.0     332.5730148358593
 4700.0     331.9797095298088
 4800.0     331.3359897342945
 4900.0     330.6529707313933
 5000.0     330.0197681214539
 5100.0     329.3635724327168
 5200.0     328.7081092270499
 5300.0     328.0838922376112
 5400.0     327.3936502913322
 5500.0     326.7993722008792
 5600.0     325.8375455244811
 5700.0     325.0105144338557
 5800.0     324.7214426313161
 5900.0     323.7114685367437
 6000.0     322.8695732485655
# P = 5.000000 (GPa)
    1.0     374.4248054796441
  100.0     374.5303715950954
  200.0     374.0975368788921
  300.0     373.9241679149651
  400.0     373.0372140796518
  500.0     372.1472137125128
  600.0     371.0403481563917
  700.0     369.9145589902811
  800.0     368.7492886530372
  900.0     367.5809888731652
 1000.0     366.4126679517323
 1100.0     365.2494124035911
 1200.0     364.0991744261668
 1300.0     362.9597533834149
 1400.0     361.8343380256135
 1500.0     360.7243202891852
 1600.0     359.6311094348414
 1700.0     358.5560168077685
 1800.0     357.5007748042424
 1900.0     356.4602261524660
 2000.0     355.4490224750597
 2100.0     354.4481703411990
 2200.0     353.4739006104811
 2300.0     352.5237977002406
 2400.0     351.5841739782376
 2500.0     350.6843408221263
 2600.0     349.7830766768485
 2700.0     348.9204855033575
 2800.0     348.0747044931773
 2900.0     347.2353745861589
 3000.0     346.4393190999627
 3100.0     345.6431939836688
 3200.0     344.8810266748854
 3300.0     344.0944301658960
 3400.0     343.3850015209911
 3500.0     342.6748547409163
 3600.0     341.9197837155707
 3700.0     341.3191477120602
 3800.0     340.5278044948592
 3900.0     339.9185912084550
 4000.0     339.2648122869147
 4100.0     338.5737143576615
 4200.0     337.9431789719433
 4300.0     337.3661309612697
 4400.0     336.6166376025584
 4500.0     336.0730394406788
 4600.0     335.3574214115158
 4700.0     334.7619471883066
 4800.0     334.1289224887281
 4900.0     333.4452826204879
 5000.0     332.8197921293772
 5100.0     332.1674890915588
 5200.0     331.5145605592943
 5300.0     330.8925992573191
 5400.0     330.2093597831573
 5500.0     329.6158620297117
 5600.0     328.6795972583218
 5700.0     327.8598813906532
 5800.0     327.5546502692769
 5900.0     326.5615796541751
 6000.0     325.7235589498791
# P = 6.000000 (GPa)
    1.0     377.6147977832870
  100.0     377.7165428151538
  200.0     377.2746972005069
  300.0     377.0865718067581
  400.0     376.1903150819323
  500.0     375.2912877291440
  600.0     374.1766538601141
  700.0     373.0428740692342
  800.0     371.8695000333686
  900.0     370.6926641778280
 1000.0     369.5155992280757
 1100.0     368.3431789735988
 1200.0     367.1832795722486
 1300.0     366.0338137524627
 1400.0     364.8981409928763
 1500.0     363.7779457757370
 1600.0     362.6738042119891
 1700.0     361.5868450563362
 1800.0     360.5193565013296
 1900.0     359.4661975965437
 2000.0     358.4420661836602
 2100.0     357.4280414422044
 2200.0     356.4406156396619
 2300.0     355.4770082304664
 2400.0     354.5242549334592
 2500.0     353.6111032890190
 2600.0     352.6969716679431
 2700.0     351.8214406127665
 2800.0     350.9633436223643
 2900.0     350.1114847779585
 3000.0     349.3047425845180
 3100.0     348.4968183582620
 3200.0     347.7247236607250
 3300.0     346.9290415455266
 3400.0     346.2085536044330
 3500.0     345.4902819018762
 3600.0     344.7271266208890
 3700.0     344.1180982256520
 3800.0     343.3235260754537
 3900.0     342.7096366652348
 4000.0     342.0470329345916
 4100.0     341.3568084153664
 4200.0     340.7217443305024
 4300.0     340.1416094018358
 4400.0     339.3937916035123
 4500.0     338.8503448663594
 4600.0     338.1378202003739
 4700.0     337.5402680757851
 4800.0     336.9172527977166
 4900.0     336.2333054967303
 5000.0     335.6152709747705
 5100.0     334.9671213427313
 5200.0     334.3171323634463
 5300.0     333.6979530261106
 5400.0     333.0221249711194
 5500.0     332.4301921122309
 5600.0     331.5190165432065
 5700.0     330.7075974480431
 5800.0     330.3882788493682
 5900.0     329.4125820643984
 6000.0     328.5802407636243
# P = 7.000000 (GPa)
    1.0     380.8047931803123
  100.0     380.9027604576123
  200.0     380.4520178672120
  300.0     380.2493434101073
  400.0     379.3439212485065
  500.0     378.4359306359529
  600.0     377.3136962266573
  700.0     376.1720557816390
  800.0     374.9906478654801
  900.0     373.8054893784099
 1000.0     372.6196608713947
 1100.0     371.4382740298104
 1200.0     370.2689975494353
 1300.0     369.1096740454177
 1400.0     367.9637737783700
 1500.0     366.8330924743593
 1600.0     365.7185949749249
 1700.0     364.6205663169297
 1800.0     363.5410185154237
 1900.0     362.4754936094951
 2000.0     361.4385740363577
 2100.0     360.4115313621328
 2200.0     359.4109638721514
 2300.0     358.4339095524706
 2400.0     357.4679591269733
 2500.0     356.5414018715280
 2600.0     355.6142547638061
 2700.0     354.7256211399181
 2800.0     353.8549577589719
 2900.0     352.9903924500769
 3000.0     352.1724861474951
 3100.0     351.3525445707983
 3200.0     350.5700526789353
 3300.0     349.7648295145099
 3400.0     349.0330578158603
 3500.0     348.3061663771168
 3600.0     347.5345602408524
 3700.0     346.9167341017476
 3800.0     346.1182324925661
 3900.0     345.4991254463719
 4000.0     344.8276544029191
 4100.0     344.1374426751911
 4200.0     343.4976260971656
 4300.0     342.9140467223480
 4400.0     342.1674067444151
 4500.0     341.6236896701737
 4600.0     340.9138749678783
 4700.0     340.3142553902582
 4800.0     339.7005087489055
 4900.0     339.0164665704828
 5000.0     338.4055570715304
 5100.0     337.7617143999962
 5200.0     337.1149612799513
 5300.0     336.4989750819423
 5400.0     335.8308518065039
 5500.0     335.2411449302824
 5600.0     334.3545040454337
 5700.0     333.5522151266990
 5800.0     333.2207088987512
 5900.0     332.2627413309086
 6000.0     331.4376962980524
# P = 8.000000 (GPa)
    1.0     383.9947897168444
  100.0     384.0890292594266
  200.0     383.6295134722764
  300.0     383.4124495082956
  400.0     382.4979944708639
  500.0     381.5812116057676
  600.0     380.4514043980824
  700.0     379.3020633129856
  800.0     378.1127816742595
  900.0     376.9193430394430
 1000.0     375.7249850822830
 1100.0     374.5346258098333
 1200.0     373.3561393267963
 1300.0     372.1872737387773
 1400.0     371.0313151095245
 1500.0     369.8902313879713
 1600.0     368.7650415586199
 1700.0     367.6564733747733
 1800.0     366.5657179255129
 1900.0     365.4879959900680
 2000.0     364.4384886824218
 2100.0     363.3985887373910
 2200.0     362.3849311962572
 2300.0     361.3945021755397
 2400.0     360.4153131309192
 2500.0     359.4752842980712
 2600.0     358.5349937756874
 2700.0     357.6331102203284
 2800.0     356.7496467627681
 2900.0     355.8722024742942
 3000.0     355.0426808787900
 3100.0     354.2104996724082
 3200.0     353.4171534366903
 3300.0     352.6019357473203
 3400.0     351.8586399992316
 3500.0     351.1226310757480
 3600.0     350.3421892780362
 3700.0     349.7151438980852
 3800.0     348.9120079418179
 3900.0     348.2871162216405
 4000.0     347.6066851711532
 4100.0     346.9156156893774
 4200.0     346.2707671061248
 4300.0     345.6833420560344
 4400.0     344.9373358698299
 4500.0     344.3928752255913
 4600.0     343.6853265079931
 4700.0     343.0835735333786
 4800.0     342.4783034380478
 4900.0     341.7942823716906
 5000.0     341.1900958625965
 5100.0     340.5506107514516
 5200.0     339.9072851192599
 5300.0     339.2947919545446
 5400.0     338.6345548034308
 5500.0     338.0476150134062
 5600.0     337.1848751218632
 5700.0     336.3924049483624
 5800.0     336.0504425275119
 5900.0     335.1104468045826
 6000.0     334.2941292729714
# P = 9.000000 (GPa)
    1.0     387.1847870583335
  100.0     387.2753415888405
  200.0     386.8071750467478
  300.0     386.5759203597793
  400.0     385.6525255457999
  500.0     384.7270595697746
  600.0     383.5898560341624
  700.0     382.4328424435185
  800.0     381.2358273252586
  900.0     380.0343001306446
 1000.0     378.8314350144004
 1100.0     377.6323588195016
 1200.0     376.4446639535871
 1300.0     375.2663974275547
 1400.0     374.1007220025271
 1500.0     372.9493999838971
 1600.0     371.8136340536149
 1700.0     370.6941751526464
 1800.0     369.5926979824189
 1900.0     368.5036880348406
 2000.0     367.4417289993722
 2100.0     366.3891746863906
 2200.0     365.3625070441334
 2300.0     364.3587942091742
 2400.0     363.3663515567892
 2500.0     362.4128080661736
 2600.0     361.4592677986385
 2700.0     360.5440040801633
 2800.0     359.6475255861512
 2900.0     358.7570369247982
 3000.0     357.9154769682249
 3100.0     357.0708325627028
 3200.0     356.2661897443122
 3300.0     355.4405290879083
 3400.0     354.6854562135033
 3500.0     353.9398320547284
 3600.0     353.1501551209610
 3700.0     352.5134560427095
 3800.0     351.7049795550317
 3900.0     351.0737147183589
 4000.0     350.3841846969808
 4100.0     349.6913802134358
 4200.0     349.0411690467614
 4300.0     348.4494571569961
 4400.0     347.7034984548703
 4500.0     347.1577735989566
 4600.0     346.4519905962830
 4700.0     345.8479660505442
 4800.0     345.2503329839618
 4900.0     344.5663570458026
 5000.0     343.9684240774778
 5100.0     343.3332486386745
 5200.0     342.6934414436184
 5300.0     342.0846338701390
 5400.0     341.4323561562341
 5500.0     340.8486080835326
 5600.0     340.0090591541521
 5700.0     339.2269551116772
 5800.0     338.8761032204341
 5900.0     337.9542116470196
 6000.0     337.1478703265849
# P = 10.000000 (GPa)
    1.0     390.3747876613701
  100.0     390.4617019128614
  200.0     389.9849916290639
  300.0     389.7397108362873
  400.0     388.8075434375878
  500.0     387.8734906952762
  600.0     386.7289548304749
  700.0     385.5644669991314
  800.0     384.3597522867368
  900.0     383.1502563491149
 1000.0     381.9391064747295
 1100.0     380.7313241607048
 1200.0     379.5346801531809
 1300.0     378.3470370398572
 1400.0     377.1717561059197
 1500.0     376.0105612958156
 1600.0     374.8643705597956
 1700.0     373.7341820336192
 1800.0     372.6216200376156
 1900.0     371.5217524393283
 2000.0     370.4483057014018
 2100.0     369.3832297073172
 2200.0     368.3436925979183
 2300.0     367.3267979612281
 2400.0     366.3211167475488
 2500.0     365.3540391481629
 2600.0     364.3871660605037
 2700.0     363.4584107090886
 2800.0     362.5487228634511
 2900.0     361.6450335585206
 3000.0     360.7910420938150
 3100.0     359.9337122699743
 3200.0     359.1173477141407
 3300.0     358.2808036546650
 3400.0     357.5136907389474
 3500.0     356.7579564503852
 3600.0     355.9586336928048
 3700.0     355.3118366277784
 3800.0     354.4973151513180
 3900.0     353.8590714395993
 4000.0     353.1602611006906
 4100.0     352.4648408834905
 4200.0     351.8088900825231
 4300.0     351.2124140029090
 4400.0     350.4658783047761
 4500.0     349.9183253500427
 4600.0     349.2137557064639
 4700.0     348.6072534034737
