# T (K)      B_T_P (GPa)
# P = 0.000000 (GPa)
    1.0     358.4597302181347
  100.0     358.0844293908935
  200.0     356.2437643470685
  300.0     353.4877228357725
  400.0     350.3507419847858
  500.0     347.0752845548861
  600.0     343.7495947849544
  700.0     340.4043753149110
  800.0     337.0502728421673
  900.0     333.6908810901346
 1000.0     330.3273369042641
 1100.0     326.9604345622813
 1200.0     323.5907520220030
 1300.0     320.2188830049915
 1400.0     316.8454054243352
 1500.0     313.4707299129120
 1600.0     310.0955133163635
 1700.0     306.7202879129488
 1800.0     303.3452445729087
 1900.0     299.9716447143000
 2000.0     296.5992217082322
 2100.0     293.2307292533385
 2200.0     289.8627310439900
 2300.0     286.5010456843618
 2400.0     283.1410290595929
 2500.0     279.7871804788745
 2600.0     276.4380166339174
 2700.0     273.0961101361463
 2800.0     269.7600999015303
 2900.0     266.4353231278910
 3000.0     263.1060844464992
 3100.0     259.8016252149810
 3200.0     256.4926246335199
 3300.0     253.2019452305594
 3400.0     249.9324849949480
 3500.0     246.6595917638770
 3600.0     243.4126883459903
 3700.0     240.1711975566323
 3800.0     236.9232265685023
 3900.0     233.7124051469218
 4000.0     230.5431561818914
 4100.0     227.3238620204356
 4200.0     224.1847963302789
 4300.0     221.0360319582687
 4400.0     217.8977620785590
 4500.0     214.7816598439749
 4600.0     211.6856433630019
 4700.0     208.6359632863314
 4800.0     205.5358313415927
 4900.0     202.5464545428622
 5000.0     199.5074770211359
 5100.0     196.5490913496760
 5200.0     193.6107065987017
 5300.0     190.7003136141866
 5400.0     187.7968669014226
 5500.0     184.9387605098746
 5600.0     181.9549049393390
 5700.0     179.1654805701110
 5800.0     176.4963651485887
 5900.0     173.6475328753295
 6000.0     171.0142062845407
# P = 1.000000 (GPa)
    1.0     361.6498554560957
  100.0     361.2749955074146
  200.0     359.4362516825654
  300.0     356.6827119575403
  400.0     353.5481790899162
  500.0     350.2749701415005
  600.0     346.9512983513890
  700.0     343.6078497030359
  800.0     340.2554223193922
  900.0     336.8978884910686
 1000.0     333.5364109116043
 1100.0     330.1712787348451
 1200.0     326.8028024071837
 1300.0     323.4315700570669
 1400.0     320.0581098046334
 1500.0     316.6829152369881
 1600.0     313.3065524064949
 1700.0     309.9295709193372
 1800.0     306.5523110448484
 1900.0     303.1757643860126
 2000.0     299.7999381386599
 2100.0     296.4269516539994
 2200.0     293.0545330888039
 2300.0     289.6870694165744
 2400.0     286.3212419862257
 2500.0     282.9606498967219
 2600.0     279.6042501362010
 2700.0     276.2542402064269
 2800.0     272.9096282641494
 2900.0     269.5750014225132
 3000.0     266.2372232314310
 3100.0     262.9210317638617
 3200.0     259.6017173988930
 3300.0     256.2988827521149
 3400.0     253.0152762842754
 3500.0     249.7294626874827
 3600.0     246.4673263428431
 3700.0     243.2108165731679
 3800.0     239.9494046838299
 3900.0     236.7218011031728
 4000.0     233.5324572406462
 4100.0     230.2990765346767
 4200.0     227.1388269019517
 4300.0     223.9708825737507
 4400.0     220.8133798597992
 4500.0     217.6770368735524
 4600.0     214.5599225765181
 4700.0     211.4862422754886
 4800.0     208.3672484404888
 4900.0     205.3510760714489
 5000.0     202.2902222916236
 5100.0     199.3047938911914
 5200.0     196.3390209884674
 5300.0     193.4002965470427
 5400.0     190.4691522681533
 5500.0     187.5813259577844
 5600.0     184.5773550938466
 5700.0     181.7557082485146
 5800.0     179.0476927346317
 5900.0     176.1728177853220
 6000.0     173.5010332604579
# P = 2.000000 (GPa)
    1.0     364.8399950135188
  100.0     364.4655765514527
  200.0     362.6287594963187
  300.0     359.8777090109951
  400.0     356.7455932251593
  500.0     353.4746020602545
  600.0     350.1529898684041
  700.0     346.8114319174016
  800.0     343.4607102224886
  900.0     340.1047748982973
 1000.0     336.7450978000717
 1100.0     333.3820057388463
 1200.0     330.0153219095802
 1300.0     326.6453228313862
 1400.0     323.2725046675722
 1500.0     319.8973946620354
 1600.0     316.5205074648748
 1700.0     313.1423997484127
 1800.0     309.7635152263251
 1900.0     306.3846542990058
 2000.0     303.0060269923657
 2100.0     299.6292557909488
 2200.0     296.2529847787071
 2300.0     292.8804535524953
 2400.0     289.5094262102559
 2500.0     286.1427505810477
 2600.0     282.7797586108311
 2700.0     279.4223216621187
 2800.0     276.0697683005205
 2900.0     272.7260196249968
 3000.0     269.3802157016125
 3100.0     266.0530880837550
 3200.0     262.7240409192264
 3300.0     259.4097519805055
 3400.0     256.1128160782901
 3500.0     252.8147325283117
 3600.0     249.5381497787876
 3700.0     246.2673332116028
 3800.0     242.9930194797435
 3900.0     239.7493853831875
 4000.0     236.5408771056864
 4100.0     233.2938708336405
 4200.0     230.1133414385295
 4300.0     226.9269352760712
 4400.0     223.7508806084879
 4500.0     220.5949958336787
 4600.0     217.4574982850463
 4700.0     214.3606579544285
 4800.0     211.2233139062373
 4900.0     208.1812585297594
 5000.0     205.0991390245690
 5100.0     202.0875139177297
 5200.0     199.0951751312386
 5300.0     196.1289511281939
 5400.0     193.1708724965138
 5500.0     190.2541491633019
 5600.0     187.2304091523547
 5700.0     184.3774149355304
 5800.0     181.6316356132738
 5900.0     178.7312520922715
 6000.0     176.0220436724339
# P = 3.000000 (GPa)
    1.0     368.0301318552786
  100.0     367.6561591981198
  200.0     365.8212736171710
  300.0     363.0727200315639
  400.0     359.9430218914574
  500.0     356.6742190693120
  600.0     353.3546270956007
  700.0     350.0149935465086
  800.0     346.6660924226026
  900.0     343.3118092348294
 1000.0     339.9536921262682
 1100.0     336.5923558385062
 1200.0     333.2276851120785
 1300.0     329.8595041432113
 1400.0     326.4879446922203
 1500.0     323.1135223841055
 1600.0     319.7367296601321
 1700.0     316.3581218365006
 1800.0     312.9782081991989
 1900.0     309.5976629463459
 2000.0     306.2168383397760
 2100.0     302.8369809999358
 2200.0     299.4574313557641
 2300.0     296.0805347941747
 2400.0     292.7049196946928
 2500.0     289.3328179422683
 2600.0     285.9638763618668
 2700.0     282.5996856479321
 2800.0     279.2398493650799
 2900.0     275.8877016169099
 3000.0     272.5343929444239
 3100.0     269.1971163012004
 3200.0     265.8589203967131
 3300.0     262.5338750891542
 3400.0     259.2244185439267
 3500.0     255.9147153101148
 3600.0     252.6244668772033
 3700.0     249.3400533559488
 3800.0     246.0533815714170
 3900.0     242.7944647267323
 4000.0     239.5677125656184
 4100.0     236.3075489612347
 4200.0     233.1076355412442
 4300.0     229.9034840009517
 4400.0     226.7095578348235
 4500.0     223.5348293978968
 4600.0     220.3776617717594
 4700.0     217.2584966557988
 4800.0     214.1033187293215
 4900.0     211.0362862521870
 5000.0     207.9335133287241
 5100.0     204.8965330287101
 5200.0     201.8784469751990
 5300.0     198.8855515477480
 5400.0     195.9012998964754
 5500.0     192.9564992403321
 5600.0     189.9133443710161
 5700.0     187.0298735327087
 5800.0     184.2474565593438
 5900.0     181.3221021582431
 6000.0     178.5764966167917
# P = 4.000000 (GPa)
    1.0     371.2202608222184
  100.0     370.8467371944764
  200.0     369.0137812355803
  300.0     366.2677330990541
  400.0     363.1404636694880
  500.0     359.8738529127266
  600.0     356.5562548918963
  700.0     353.2185070515692
  800.0     349.8714404578297
  900.0     346.5189289928085
 1000.0     343.1624425247684
 1100.0     339.8026380309606
 1200.0     336.4396816708468
 1300.0     333.0734937256427
 1400.0     329.7037845576459
 1500.0     326.3306525992494
 1600.0     322.9545701608961
 1700.0     319.5760846199252
 1800.0     316.1957410453296
 1900.0     312.8141388210999
 2000.0     309.4317222513228
 2100.0     306.0494666167126
 2200.0     302.6672180620376
 2300.0     299.2866498436579
 2400.0     295.9070604025532
 2500.0     292.5301873908066
 2600.0     289.1559376933739
 2700.0     285.7856633085750
 2800.0     282.4192008122570
 2900.0     279.0593712798395
 3000.0     275.6990860472215
 3100.0     272.3524385427249
 3200.0     269.0056810335373
 3300.0     265.6705742514887
 3400.0     262.3493978480819
 3500.0     259.0287250565279
 3600.0     255.7255858613980
 3700.0     252.4282828901087
 3800.0     249.1298015740194
 3900.0     245.8563458736407
 4000.0     242.6122604092106
 4100.0     239.3394149612905
 4200.0     236.1210048115900
 4300.0     232.8998226840013
 4400.0     229.6887050489604
 4500.0     226.4958302399609
 4600.0     223.3197043200271
 4700.0     220.1790447121239
 4800.0     217.0065539005082
 4900.0     213.9154435734308
 5000.0     210.7926313134085
 5100.0     207.7311328235082
 5200.0     204.6881144684157
 5300.0     201.6693719957839
 5400.0     198.6597067784751
 5500.0     195.6876453022996
 5600.0     192.6254380066239
 5700.0     189.7123569420655
 5800.0     186.8944183487038
 5900.0     183.9446343464515
 6000.0     181.1636511903198
# P = 5.000000 (GPa)
    1.0     374.4103878939234
  100.0     374.0373125518648
  200.0     372.2062834999441
  300.0     369.4627423477162
  400.0     366.3379063385468
  500.0     363.0734965210425
  600.0     359.7579019294185
  700.0     356.4220167073697
  800.0     353.0767404792434
  900.0     349.7260114480806
 1000.0     346.3712687793802
 1100.0     343.0130769756959
 1200.0     339.6516367566784
 1300.0     336.2871294727276
 1400.0     332.9194038126138
 1500.0     329.5481395035185
 1600.0     326.1733801357962
 1700.0     322.7956355350115
 1800.0     319.4154648465770
 1900.0     316.0334304163349
 2000.0     312.6500287974343
 2100.0     309.2660519770312
 2200.0     305.8816901395865
 2300.0     302.4981354029955
 2400.0     299.1151862968452
 2500.0     295.7341943370787
 2600.0     292.3552769094133
 2700.0     288.9795857887573
 2800.0     285.6071519964888
 2900.0     282.2403524953768
 3000.0     278.8736260973656
 3100.0     275.5183769348596
 3200.0     272.1636480318771
 3300.0     268.8191716409365
 3400.0     265.4870681576658
 3500.0     262.1560757912848
 3600.0     258.8408149547749
 3700.0     255.5313276981033
 3800.0     252.2215901027685
 3900.0     248.9343355635883
 4000.0     245.6738174251022
 4100.0     242.3887728775771
 4200.0     239.1527448509878
 4300.0     235.9152452610433
 4400.0     232.6876157614315
 4500.0     229.4772910334250
 4600.0     226.2829172132806
 4700.0     223.1215884559388
 4800.0     219.9323104106370
 4900.0     216.8180148281681
 5000.0     213.6757790872798
 5100.0     210.5905949016451
 5200.0     207.5234555593488
 5300.0     204.4796866621109
 5400.0     201.4453654526660
 5500.0     198.4468564625568
 5600.0     195.3659673157090
 5700.0     192.4241380652966
 5800.0     189.5717837566481
 5900.0     186.5981150187581
 6000.0     183.7827664896613
# P = 6.000000 (GPa)
    1.0     377.6005176499560
  100.0     377.2278873775393
  200.0     375.3987846951264
  300.0     372.6577507722048
  400.0     369.5353449677924
  500.0     366.2731371140487
  600.0     362.9595569550248
  700.0     359.6255452329291
  800.0     356.2820418083327
  900.0     352.9330512940329
 1000.0     349.5800518301970
 1100.0     346.2235793847283
 1200.0     342.8637531782230
 1300.0     339.5007468707137
 1400.0     336.1346823227536
 1500.0     332.7653720856873
 1600.0     329.3925107534613
 1700.0     326.0161220180845
 1800.0     322.6367306848015
 1900.0     319.2548862251177
 2000.0     315.8711080485415
 2100.0     312.4860764166438
 2200.0     309.1001928304732
 2300.0     305.7143281742366
 2400.0     302.3286353405798
 2500.0     298.9441741915036
 2600.0     295.5612283140454
 2700.0     292.1807842331893
 2800.0     288.8030322722132
 2900.0     285.4299691451055
 3000.0     282.0573441822351
 3100.0     278.6942536041279
 3200.0     275.3321465939030
 3300.0     271.9789894309415
 3400.0     268.6367436395899
 3500.0     265.2960815381039
 3600.0     261.9694623806927
 3700.0     258.6484936638572
 3800.0     255.3280577728447
 3900.0     252.0277405363522
 4000.0     248.7516804019597
 4100.0     245.4549267539860
 4200.0     242.2021512607207
 4300.0     238.9490456677122
 4400.0     235.7055834822750
 4500.0     232.4785044520722
 4600.0     229.2665917348859
 4700.0     226.0854142200224
 4800.0     222.8798792501875
 4900.0     219.7432843507704
 5000.0     216.5822427595049
 5100.0     213.4742008622343
 5200.0     210.3837481958544
 5300.0     207.3157697370989
 5400.0     204.2575482294051
 5500.0     201.2334018349065
 5600.0     198.1342095546133
 5700.0     195.1644898043160
 5800.0     192.2788155580929
 5900.0     189.2818105376500
 6000.0     186.4331016115320
# P = 7.000000 (GPa)
    1.0     380.7906489205046
  100.0     380.4184623149530
  200.0     378.5912872304878
  300.0     375.8527611227429
  400.0     372.7327804496006
  500.0     369.4727734462140
  600.0     366.1612062903953
  700.0     362.8290799063719
  800.0     359.4873647198844
  900.0     356.1400938810542
 1000.0     352.7887943886129
 1100.0     349.4340331218111
 1200.0     346.0759225015899
 1300.0     342.7145257772961
 1400.0     339.3499589384232
 1500.0     335.9822792509400
 1600.0     332.6113598946230
 1700.0     329.2368915054689
 1800.0     325.8588896418630
 1900.0     322.4778547405152
 2000.0     319.0943100750732
 2100.0     315.7088792713020
 2200.0     312.3220713767590
 2300.0     308.9345648594297
 2400.0     305.5467454967687
 2500.0     302.1594623645033
 2600.0     298.7731262113339
 2700.0     295.3885897865827
 2800.0     292.0061709938643
 2900.0     288.6275451106104
 3000.0     285.2495713891852
 3100.0     281.8793906770766
 3200.0     278.5105019218124
 3300.0     275.1493497949336
 3400.0     271.7977384607634
 3500.0     268.4480563206694
 3600.0     265.1108363624835
 3700.0     261.7790866713458
 3800.0     258.4485151995032
 3900.0     255.1358675317779
 4000.0     251.8451461284585
 4100.0     248.5371806344065
 4200.0     245.2685196422863
 4300.0     242.0005178397842
 4400.0     238.7419017218745
 4500.0     235.4987631694385
 4600.0     232.2700191681542
 4700.0     229.0698083368334
 4800.0     225.8485514100139
 4900.0     222.6905364758131
 5000.0     219.5113084391342
 5100.0     216.3812323047459
 5200.0     213.2682703263636
 5300.0     210.1768954105355
 5400.0     207.0955274189691
 5500.0     204.0465505329121
 5600.0     200.9294419798825
 5700.0     197.9326850608777
 5800.0     195.0147765287693
 5900.0     191.9949872657890
 6000.0     189.1139156527643
# P = 8.000000 (GPa)
    1.0     383.9807795440641
  100.0     383.6090376334598
  200.0     381.7837920072074
  300.0     379.0477716013395
  400.0     375.9302140269633
  500.0     372.6724102389252
  600.0     369.3628506295218
  700.0     366.0326083664423
  800.0     362.6926939331782
  900.0     359.3471545879273
 1000.0     355.9975402124745
 1100.0     352.6444519793923
 1200.0     349.2880357010791
 1300.0     345.9283489451965
 1400.0     342.5653898405140
 1500.0     339.1992083377745
 1600.0     335.8298999958155
 1700.0     332.4573526604286
 1800.0     329.0812927996213
 1900.0     325.7016844555945
 2000.0     322.3189849474596
 2100.0     318.9337998767576
 2200.0     315.5466710205050
 2300.0     312.1581821606227
 2400.0     308.7688547284235
 2500.0     305.3793942664954
 2600.0     301.9903049053407
 2700.0     298.6023335936446
 2800.0     295.2158975158796
 2900.0     291.8324042734785
 3000.0     288.4496388056027
 3100.0     285.0731102802251
 3200.0     281.6980392177827
 3300.0     278.3295749063495
 3400.0     274.9693667880756
 3500.0     271.6113141627097
 3600.0     268.2642451235083
 3700.0     264.9224126045392
 3800.0     261.5822729978572
 3900.0     258.2580232895398
 4000.0     254.9535113933425
 4100.0     251.6348385626425
 4200.0     248.3511455970602
 4300.0     245.0689557129044
 4400.0     241.7958639904555
 4500.0     238.5373598593178
 4600.0     235.2924907964371
 4700.0     232.0740571390197
 4800.0     228.8376178807775
 4900.0     225.6590555380135
 5000.0     222.4622622349634
 5100.0     219.3109708288612
 5200.0     216.1762998990380
 5300.0     213.0623378725068
 5400.0     209.9585753314968
 5500.0     206.8855716701510
 5600.0     203.7509418480186
 5700.0     200.7279967369177
 5800.0     197.7789294438116
 5900.0     194.7369115653419
 6000.0     191.8244677099865
# P = 9.000000 (GPa)
    1.0     387.1709096507759
  100.0     386.7996133953318
  200.0     384.9762992214576
  300.0     382.2427790942860
  400.0     379.1276474202091
  500.0     375.8720496572286
  600.0     372.5644957675623
  700.0     369.2361324309090
  800.0     365.8980166690183
  900.0     362.5542200079719
 1000.0     359.2063013266098
 1100.0     355.8548820601472
 1200.0     352.5001151954315
 1300.0     349.1421145542261
 1400.0     345.7808551405546
 1500.0     342.4162926078871
 1600.0     339.0484789066332
 1700.0     335.6775231286219
 1800.0     332.3033683761245
 1900.0     328.9257238634225
 2000.0     325.5444827361304
 2100.0     322.1601775687624
 2200.0     318.7733370037725
 2300.0     315.3845167798642
 2400.0     311.9943009985556
 2500.0     308.6033053078989
 2600.0     305.2120987001268
 2700.0     301.8213467990861
 2800.0     298.4315411926904
 2900.0     295.0438705152944
 3000.0     291.6568775188441
 3100.0     288.2747345401008
 3200.0     284.8940836839841
 3300.0     281.5189869386197
 3400.0     278.1509427884437
 3500.0     274.7851690879143
 3600.0     271.4289968871344
 3700.0     268.0777773474010
 3800.0     264.7286417831801
 3900.0     261.3935145494534
 4000.0     258.0760729852300
 4100.0     254.7472045825762
 4200.0     251.4493247263599
 4300.0     248.1536532227819
 4400.0     244.8667637981998
 4500.0     241.5935871952042
 4600.0     238.3332979032275
 4700.0     235.0974469592256
 4800.0     231.8463696531508
 4900.0     228.6481258718268
 5000.0     225.4343902560358
 5100.0     222.2626980336354
 5200.0     219.1071148619449
 5300.0     215.9713713129458
 5400.0     212.8459642774251
 5500.0     209.7497343600844
 5600.0     206.5979864154579
 5700.0     203.5496977341099
 5800.0     200.5705370788055
 5900.0     197.5068497989851
 6000.0     194.5640168798709
# P = 10.000000 (GPa)
    1.0     390.3610412880195
  100.0     389.9901894494201
  200.0     388.1688069505908
  300.0     385.4377833651695
  400.0     382.3250823264927
  500.0     379.0716896591605
  600.0     375.7661439089805
  700.0     372.4396574047713
  800.0     369.1033346238136
  900.0     365.7612802849718
 1000.0     362.4150652985473
 1100.0     359.0653300163681
 1200.0     355.7122085943719
 1300.0     352.3558494530349
 1400.0     348.9962639782198
 1500.0     345.6334024415567
 1600.0     342.2672071223033
 1700.0     338.8977540038327
 1800.0     335.5251743037950
 1900.0     332.1494175906003
 2000.0     328.7701535115150
 2100.0     325.3873516830685
 2200.0     322.0014145686228
 2300.0     318.6129054192026
 2400.0     315.2224222701756
 2500.0     311.8305308991329
 2600.0     308.4378418997560
 2700.0     305.0449605476163
 2800.0     301.6524313787346
 2900.0     298.2612677176451
 3000.0     294.8706186162800
 3100.0     291.4835855832384
 3200.0     288.0979605226111
 3300.0     284.7169080651698
 3400.0     281.3417806287766
 3500.0     277.9689351199975
 3600.0     274.6043998767391
 3700.0     271.2444867838931
 3800.0     267.8869321706197
 3900.0     264.5416480512604
 4000.0     261.2121276928274
 4100.0     257.8735827380160
 4200.0     254.5623526316404
 4300.0     251.2539043051602
 4400.0     247.9538946555294
 4500.0     244.6667378508828
 4600.0     241.3917317717751
 4700.0     238.1392641299244
