# T (K)      C_P (J K^-1 mol^-1)
# P = 0.000000 (GPa)
    1.0       1.0000422098829
  100.0      15.9781666982108
  200.0      36.9730745989589
  300.0      41.2093670706613
  400.0      45.7873512731913
  500.0      47.4248097874915
  600.0      48.8958985879638
  700.0      49.8478580393887
  800.0      50.6506933532030
  900.0      51.3170133216681
 1000.0      51.9110146542523
 1100.0      52.4624924741496
 1200.0      52.9787270843371
 1300.0      53.4802277955829
 1400.0      53.9726539935031
 1500.0      54.4608353152336
 1600.0      54.9488869974528
 1700.0      55.4400232810080
 1800.0      55.9349215985227
 1900.0      56.4445817705599
 2000.0      56.9514833604046
 2100.0      57.4808696030367
 2200.0      58.0159246157130
 2300.0      58.5601700979686
 2400.0      59.1281981683233
 2500.0      59.6920533586245
 2600.0      60.2904918666774
 2700.0      60.8897350073944
 2800.0      61.5047278172480
 2900.0      62.1513898539560
 3000.0      62.7887017746270
 3100.0      63.4630666172524
 3200.0      64.1360839536785
 3300.0      64.8559336758838
 3400.0      65.5661056450115
 3500.0      66.2906527868082
 3600.0      67.0796902689977
 3700.0      67.7997607641798
 3800.0      68.6452239878533
 3900.0      69.4110213225927
 4000.0      70.2589002774180
 4100.0      71.1069369087443
 4200.0      71.9716009197013
 4300.0      72.8306496355325
 4400.0      73.7798395666371
 4500.0      74.6579721885268
 4600.0      75.6252977986855
 4700.0      76.6004595982132
 4800.0      77.5322088872758
 4900.0      78.5732274621141
 5000.0      79.5700396186079
 5100.0      80.6028323517115
 5200.0      81.6735496994531
 5300.0      82.7559975695401
 5400.0      83.8404878759241
 5500.0      84.9627073668198
 5600.0      86.0774188809342
 5700.0      87.2321935545107
 5800.0      88.3929638221721
 5900.0      89.6166691027414
 6000.0      90.7850105563598
# P = 1.000000 (GPa)
    1.0       1.0000414337146
  100.0      15.9657174320614
  200.0      36.9523457879247
  300.0      41.1895112193676
  400.0      45.7656076747807
  500.0      47.4006525348238
  600.0      48.8681029905997
  700.0      49.8158734340240
  800.0      50.6140179800497
  900.0      51.2752739674743
 1000.0      51.8638691488159
 1100.0      52.4095570674587
 1200.0      52.9197264545392
 1300.0      53.4148932965157
 1400.0      53.9007285345299
 1500.0      54.3820752947163
 1600.0      54.8630596377470
 1700.0      55.3468940235048
 1800.0      55.8342858020370
 1900.0      56.3361918422924
 2000.0      56.8351876835021
 2100.0      57.3564029382579
 2200.0      57.8831389172193
 2300.0      58.4188655092898
 2400.0      58.9781779891052
 2500.0      59.5332187980988
 2600.0      60.1226106282807
 2700.0      60.7126865420656
 2800.0      61.3184435061794
 2900.0      61.9555454191735
 3000.0      62.5834279339284
 3100.0      63.2480743387319
 3200.0      63.9114039878697
 3300.0      64.6215384417052
 3400.0      65.3216372026458
 3500.0      66.0362908489861
 3600.0      66.8151964142344
 3700.0      67.5252399032643
 3800.0      68.3604959803716
 3900.0      69.1168357734603
 4000.0      69.9539215600472
 4100.0      70.7921473574691
 4200.0      71.6468883105793
 4300.0      72.4956592378690
 4400.0      73.4349440233133
 4500.0      74.3033625790600
 4600.0      75.2610423830052
 4700.0      76.2256259575969
 4800.0      77.1488524208089
 4900.0      78.1797295605757
 5000.0      79.1671960742012
 5100.0      80.1909093168528
 5200.0      81.2518423256260
 5300.0      82.3244135142035
 5400.0      83.4002076163774
 5500.0      84.5120661068551
 5600.0      85.6201300708418
 5700.0      86.7673565841317
 5800.0      87.9157410170697
 5900.0      89.1315262485472
 6000.0      90.2939854197898
# P = 2.000000 (GPa)
    1.0       1.0000406755855
  100.0      15.9533923224584
  200.0      36.9318610972761
  300.0      41.1699631364387
  400.0      45.7442565491720
  500.0      47.3769737558187
  600.0      48.8408981045228
  700.0      49.7845817843469
  800.0      50.5781591694695
  900.0      51.2344739701750
 1000.0      51.8178016600770
 1100.0      52.3578867535512
 1200.0      52.8621170507382
 1300.0      53.3510457936967
 1400.0      53.8303902259200
 1500.0      54.3049966513362
 1600.0      54.7790029902113
 1700.0      55.2556227117464
 1800.0      55.7355871410850
 1900.0      56.2298150953908
 2000.0      56.7209723523799
 2100.0      57.2340837196878
 2200.0      57.7525556942762
 2300.0      58.2798167999192
 2400.0      58.8304577793446
 2500.0      59.3767190883044
 2600.0      59.9570935276338
 2700.0      60.5380254426343
 2800.0      61.1345537137288
 2900.0      61.7621116062109
 3000.0      62.3805503691209
 3100.0      63.0354715303975
 3200.0      63.6890903943217
 3300.0      64.3894604999101
 3400.0      65.0794690449571
 3500.0      65.7841791592577
 3600.0      66.5528968286211
 3700.0      67.2528640233889
 3800.0      68.0778253862511
 3900.0      68.8245920945859
 4000.0      69.6508519527800
 4100.0      70.4791368797250
 4200.0      71.3238506467059
 4300.0      72.1622578624334
 4400.0      73.0915008258995
 4500.0      73.9500779335133
 4600.0      74.8979657163603
 4700.0      75.8518919438680
 4800.0      76.7663845997845
 4900.0      77.7870244226921
 5000.0      78.7649912290318
 5100.0      79.7794882606354
 5200.0      80.8305413067583
 5300.0      81.8931527680406
 5400.0      82.9601205514952
 5500.0      84.0615805986306
 5600.0      85.1627203492433
 5700.0      86.3022808861931
 5800.0      87.4384510889558
 5900.0      88.6461761500180
 6000.0      89.8026850622337
# P = 3.000000 (GPa)
    1.0       1.0000399360320
  100.0      15.9411897719776
  200.0      36.9116169403649
  300.0      41.1507108991925
  400.0      45.7232878479381
  500.0      47.3537656977296
  600.0      48.8142547677899
  700.0      49.7539708134575
  800.0      50.5430891391921
  900.0      51.1945885967653
 1000.0      51.7727785458131
 1100.0      52.3073999787981
 1200.0      52.8058873187579
 1300.0      53.2887121298589
 1400.0      53.7616602825751
 1500.0      54.2296259974137
 1600.0      54.6967466745151
 1700.0      55.1662424144264
 1800.0      55.6388627489092
 1900.0      56.1254927199275
 2000.0      56.6088831247551
 2100.0      57.1139617413809
 2200.0      57.6242297273365
 2300.0      58.1430833348259
 2400.0      58.6851019677093
 2500.0      59.2226240238917
 2600.0      59.7940157383876
 2700.0      60.3658322214958
 2800.0      60.9531449009208
 2900.0      61.5711797321526
 3000.0      62.1801672326548
 3100.0      62.8253614351236
 3200.0      63.4692525583325
 3300.0      64.1598158124573
 3400.0      64.8397211067509
 3500.0      65.5344432770903
 3600.0      66.2929218674211
 3700.0      66.9827676056506
 3800.0      67.7973530566653
 3900.0      68.5344361430738
 4000.0      69.3498377051206
 4100.0      70.1680580629208
 4200.0      71.0026416647304
 4300.0      71.8306005858393
 4400.0      72.7496674291020
 4500.0      73.5982766167688
 4600.0      74.5362264317694
 4700.0      75.4794125192393
 4800.0      76.3849623636905
 4900.0      77.3952623076549
 5000.0      78.3635727053420
 5100.0      79.3687089178077
 5200.0      80.4097766243703
 5300.0      81.4623336285460
 5400.0      82.5203334088880
 5500.0      83.6113419670373
 5600.0      84.7052766425142
 5700.0      85.8370338019785
 5800.0      86.9611298713213
 5900.0      88.1606391614456
 6000.0      89.3110982865988
# P = 4.000000 (GPa)
    1.0       1.0000392130398
  100.0      15.9291075770646
  200.0      36.8916083985645
  300.0      41.1317518861013
  400.0      45.7026876439019
  500.0      47.3310116726672
  600.0      48.7881660021086
  700.0      49.7240070585760
  800.0      50.5087911798988
  900.0      51.1555897103760
 1000.0      51.7287692467357
 1100.0      52.2580635500621
 1200.0      52.7509473911446
 1300.0      53.2278726228734
 1400.0      53.6945688756546
 1500.0      54.1559857604937
 1600.0      54.6163197567247
 1700.0      55.0787844685264
 1800.0      55.5441482092313
 1900.0      56.0232641665761
 2000.0      56.4989639332401
 2100.0      56.9960849063237
 2200.0      57.4982137969264
 2300.0      58.0087224384840
 2400.0      58.5421728720064
 2500.0      59.0710012535555
 2600.0      59.6334502608762
 2700.0      60.1961852230042
 2800.0      60.7743013833585
 2900.0      61.3828390403606
 3000.0      61.9823745913437
 3100.0      62.6178453784389
 3200.0      63.2519980236440
 3300.0      63.9327186897053
 3400.0      64.6025119419514
 3500.0      65.2872076081658
 3600.0      66.0354010871494
 3700.0      66.7150846657049
 3800.0      67.5192196363249
 3900.0      68.2465140723660
 4000.0      69.0510259910779
 4100.0      69.8590647653391
 4200.0      70.6834171707196
 4300.0      71.5008451770404
 4400.0      72.4096046837299
 4500.0      73.2481211763848
 4600.0      74.1759882511783
 4700.0      75.1083487344276
 4800.0      76.0047495434770
 4900.0      77.0046016943725
 5000.0      77.9630973470241
 5100.0      78.9587216433107
 5200.0      79.9896903228147
 5300.0      81.0320880143275
 5400.0      82.0809681111299
 5500.0      83.1614581997036
 5600.0      84.2479039802048
 5700.0      85.3717027924968
 5800.0      86.4838357556725
 5900.0      87.6749598856642
 6000.0      88.8192403993384
# P = 5.000000 (GPa)
    1.0       1.0000385074405
  100.0      15.9171441795417
  200.0      36.8718301305828
  300.0      41.1130749168802
  400.0      45.6824518014662
  500.0      47.3086979832707
  600.0      48.7626086523955
  700.0      49.6946833821889
  800.0      50.4752286067785
  900.0      51.1174552549169
 1000.0      51.6857454798973
 1100.0      52.2098410134101
 1200.0      52.6972644286782
 1300.0      53.1684303656449
 1400.0      53.6290862897630
 1500.0      54.0841092489901
 1600.0      54.5377464630396
 1700.0      54.9932797244831
 1800.0      55.4514772182995
 1900.0      55.9231672494583
 2000.0      56.3912568534635
 2100.0      56.8804992188378
 2200.0      57.3745586569325
 2300.0      57.8767893573639
 2400.0      58.4017306477474
 2500.0      58.9219162131263
 2600.0      59.4754678384760
 2700.0      60.0291605222634
 2800.0      60.5981052091165
 2900.0      61.1971765552669
 3000.0      61.7872662642996
 3100.0      62.4130225784922
 3200.0      63.0374322764284
 3300.0      63.7082815443076
 3400.0      64.3679584525459
 3500.0      65.0425950919347
 3600.0      65.7804628950379
 3700.0      66.4499483710846
 3800.0      67.2435651519766
 3900.0      67.9609718818478
 4000.0      68.7545644110874
 4100.0      69.5523115813211
 4200.0      70.3663344341797
 4300.0      71.1731514837287
 4400.0      72.0714761779891
 4500.0      72.8997776334971
 4600.0      73.8174191635785
 4700.0      74.7388668877768
 4800.0      75.6259160329409
 4900.0      76.6152083093551
 5000.0      77.5637302413539
 5100.0      78.5496863968535
 5200.0      79.5704354015723
 5300.0      80.6025602642689
 5400.0      81.6421605391245
 5500.0      82.7120528797654
 5600.0      83.7907241518324
 5700.0      84.9063940218925
 5800.0      86.0066481026121
 5900.0      87.1892056024632
 6000.0      88.3271522373988
# P = 6.000000 (GPa)
    1.0       1.0000378180979
  100.0      15.9052976695336
  200.0      36.8522793932068
  300.0      41.0946753596571
  400.0      45.6625634999807
  500.0      47.2868167682806
  600.0      48.7375703447993
  700.0      49.6659703160529
  800.0      50.4423932861774
  900.0      51.0801463138782
 1000.0      51.6436788331973
 1100.0      52.1627044441215
 1200.0      52.6447960565775
 1300.0      53.1103528431651
 1400.0      53.5651089643991
 1500.0      54.0139557038072
 1600.0      54.4610634105237
 1700.0      54.9097536622197
 1800.0      55.3608829983329
 1900.0      55.8252377631929
 2000.0      56.2858022210279
 2100.0      56.7672487475405
 2200.0      57.2533130296883
 2300.0      57.7473372302130
 2400.0      58.2638332499977
 2500.0      58.7754320715457
 2600.0      59.3201368891784
 2700.0      59.8648318378764
 2800.0      60.4246360526086
 2900.0      61.0142769553719
 3000.0      61.5949336777981
 3100.0      62.2109899705616
 3200.0      62.8256585498235
 3300.0      63.4866146679569
 3400.0      64.1361756263562
 3500.0      64.8007269174590
 3600.0      65.5282342304095
 3700.0      66.1874906885949
 3800.0      66.9705286230525
 3900.0      67.6779549796687
 4000.0      68.4606005223133
 4100.0      69.2479533319453
 4200.0      70.0515516352905
 4300.0      70.8476808169767
 4400.0      71.7354475872866
 4500.0      72.5534147699433
 4600.0      73.4606907084269
 4700.0      74.3711377457246
 4800.0      75.2486368932625
 4900.0      76.2272542396553
 5000.0      77.1656437503142
 5100.0      78.1417716936615
 5200.0      79.1521747711328
 5300.0      80.1739060330653
 5400.0      81.2040593008576
 5500.0      82.2632638934934
 5600.0      83.3338743865681
 5700.0      84.4412310049171
 5800.0      85.5296659110224
 5900.0      86.7034647649192
 6000.0      87.8348979928059
# P = 7.000000 (GPa)
    1.0       1.0000371444515
  100.0      15.8935662219783
  200.0      36.8329498940800
  300.0      41.0765467535899
  400.0      45.6430198024786
  500.0      47.2653478456504
  600.0      48.7130379182843
  700.0      49.6378569954107
  800.0      50.4102500680782
  900.0      51.0436528030459
 1000.0      51.6025290724145
 1100.0      52.1166185095096
 1200.0      52.5935149005897
 1300.0      53.0535914276701
 1400.0      53.5026043809680
 1500.0      53.9454163414264
 1600.0      54.3862176798082
 1700.0      54.8282453021578
 1800.0      55.2723929570805
 1900.0      55.7295110235197
 2000.0      56.1826382158618
 2100.0      56.6563757504349
 2200.0      57.1345235684521
 2300.0      57.6204170816154
 2400.0      58.1285364039393
 2500.0      58.6316096911140
 2600.0      59.1675234494224
 2700.0      59.7032704602955
 2800.0      60.2539711239780
 2900.0      60.8342224620036
 3000.0      61.4054657355293
 3100.0      62.0118420552473
 3200.0      62.6167776477140
 3300.0      63.2678260243031
 3400.0      63.9072763049453
 3500.0      64.5617222572544
 3600.0      65.2788402639547
 3700.0      65.9278420464625
 3800.0      66.7002477035534
 3900.0      67.3976077860584
 4000.0      68.1692813773177
 4100.0      68.9461445877754
 4200.0      69.7392273424104
 4300.0      70.5245953847363
 4400.0      71.4016860412272
 4500.0      72.2092034721303
 4600.0      73.1059772487785
 4700.0      74.0053357501117
 4800.0      74.8730915685994
 4900.0      75.8409170466003
 5000.0      76.7690165976112
 5100.0      77.7351536459647
 5200.0      78.7350801568794
 5300.0      79.7462911480422
 5400.0      80.7668246040997
 5500.0      81.8152422177012
 5600.0      82.8775060691254
 5700.0      83.9763532462834
 5800.0      85.0530062936171
 5900.0      86.2178455011853
 6000.0      87.3425641802838
# P = 8.000000 (GPa)
    1.0       1.0000364866512
  100.0      15.8819483130178
  200.0      36.8138390827016
  300.0      41.0586799669554
  400.0      45.6238079446577
  500.0      47.2442890415448
  600.0      48.6889894071850
  700.0      49.6103242615647
  800.0      50.3787895320658
  900.0      51.0079344341406
 1000.0      51.5622833268310
 1100.0      52.0715425967593
 1200.0      52.5433781205140
 1300.0      52.9981189453987
 1400.0      53.4415181171921
 1500.0      53.8784585421451
 1600.0      54.3130959388613
 1700.0      54.7486883261622
 1800.0      55.1860484125247
 1900.0      55.6360163163490
 2000.0      56.0818024607591
 2100.0      56.5479202441166
 2200.0      57.0182349887855
 2300.0      57.4960777821503
 2400.0      57.9958935993114
 2500.0      58.4905075966157
 2600.0      59.0176911335677
 2700.0      59.5445451933891
 2800.0      60.0861850940461
 2900.0      60.6570927444488
 3000.0      61.2189487088213
 3100.0      61.8156707594625
 3200.0      62.4108877878322
 3300.0      63.0520210670374
 3400.0      63.6813709680383
 3500.0      64.3256980246843
 3600.0      65.0324041196829
 3700.0      65.6711310299624
 3800.0      66.4328583369621
 3900.0      67.1200733526027
 4000.0      67.8807531164217
 4100.0      68.6470392110460
 4200.0      69.4295199917993
 4300.0      70.2040577377609
 4400.0      71.0703595530712
 4500.0      71.8673160909837
 4600.0      72.7534552793337
 4700.0      73.6416382945804
 4800.0      74.4994630945531
 4900.0      75.4563789126416
 5000.0      76.3740329664206
 5100.0      77.3300149884958
 5200.0      78.3193311051747
 5300.0      79.3198905473750
 5400.0      80.3306270823684
 5500.0      81.3681506991720
 5600.0      82.4217834921149
 5700.0      83.5119149147292
 5800.0      84.5768031246724
 5900.0      85.7324741868979
 6000.0      86.8502577426381
# P = 9.000000 (GPa)
    1.0       1.0000358431050
  100.0      15.8704419561364
  200.0      36.7949422357836
  300.0      41.0410730050255
  400.0      45.6049189676931
  500.0      47.2236213462385
  600.0      48.6654217633103
  700.0      49.5833499804389
  800.0      50.3479858954103
  900.0      50.9729827401137
 1000.0      51.5228971625229
 1100.0      52.0274598772398
 1200.0      52.4943454542040
 1300.0      52.9438849518703
 1400.0      53.3818231335256
 1500.0      53.8130222694227
 1600.0      54.2416647964150
 1700.0      54.6709658509443
 1800.0      55.1017691694218
 1900.0      55.5447962888491
 2000.0      55.9833265840720
 2100.0      56.4419215669833
 2200.0      56.9044896517486
 2300.0      57.3743661756297
 2400.0      57.8659560528048
 2500.0      58.3521819690684
 2600.0      58.8707011023528
 2700.0      59.3887223122742
 2800.0      59.9213500340402
 2900.0      60.4829648412736
 3000.0      61.0354661417710
 3100.0      61.6225653191487
 3200.0      62.2080844626937
 3300.0      62.8393025726779
 3400.0      63.4585675395013
 3500.0      64.0927686549757
 3600.0      64.7890466239160
 3700.0      65.4174840946846
 3800.0      66.1684944463876
 3900.0      66.8454930069701
 4000.0      67.5951605635095
 4100.0      68.3507899287686
 4200.0      69.1225874255466
 4300.0      69.8862302629807
 4400.0      70.7416364425711
 4500.0      71.5279258246132
 4600.0      72.4033027830901
 4700.0      73.2802250093986
 4800.0      74.1279373341617
 4900.0      75.0738258534376
 5000.0      75.9808816271643
 5100.0      76.9265441602940
 5200.0      77.9051139920142
 5300.0      78.8948872161029
 5400.0      79.8956467221214
 5500.0      80.9221628819407
 5600.0      81.9668826307034
 5700.0      83.0480835715913
 5800.0      84.1012056693392
 5900.0      85.2474940183089
 6000.0      86.3581046833742
# P = 10.000000 (GPa)
    1.0       1.0000352145114
  100.0      15.8590457230324
  200.0      36.7762548285129
  300.0      41.0237156759815
  400.0      45.5863486479738
  500.0      47.2033375389628
  600.0      48.6423106191281
  700.0      49.5569287615635
  800.0      50.3178177445317
  900.0      50.9387652087044
 1000.0      51.4843625583937
 1100.0      51.9843225268503
 1200.0      52.4463950702780
 1300.0      52.8908504539782
 1400.0      53.3234612438474
 1500.0      53.7490800587882
 1600.0      54.1718588743247
 1700.0      54.5950434306510
 1800.0      55.0194360228166
 1900.0      55.4557556414133
 2000.0      55.8872540000885
 2100.0      56.3384134113093
 2200.0      56.7933289951339
 2300.0      57.2553267010415
 2400.0      57.7387728259522
 2500.0      58.2166866112260
 2600.0      58.7266120561483
 2700.0      59.2358655308831
 2800.0      59.7595353711536
 2900.0      60.3119130973652
 3000.0      60.8550987739051
 3100.0      61.4326121780942
 3200.0      62.0084603211260
 3300.0      62.6297704965743
 3400.0      63.2389712134804
 3500.0      63.8630459057694
 3600.0      64.5488860715479
 3700.0      65.1670253043128
 3800.0      65.9072876458832
 3900.0      66.5740060278121
 4000.0      67.3126468592174
 4100.0      68.0575479382097
 4200.0      68.8185864375722
 4300.0      69.5712746851841
 4400.0      70.4156848090038
 4500.0      71.1912061605005
 4600.0      72.0556985961554
