# T (K)       E-ph (Ry.)
# V = 131.930000 (a.u.^3)
    5.0       0.0079414867432
  100.0       0.0084986414461
  200.0       0.0106469064200
  300.0       0.0135885637298
  400.0       0.0168880547908
  500.0       0.0203658551052
  600.0       0.0239424509718
  700.0       0.0275787388328
  800.0       0.0312536075439
  900.0       0.0349547622392
 1000.0       0.0386745930963
 1100.0       0.0424081518610
 1200.0       0.0461520878317
 1300.0       0.0499040541163
 1400.0       0.0536623593302
 1500.0       0.0574257544174
 1600.0       0.0611932973401
 1700.0       0.0649642644467
 1800.0       0.0687380907968
 1900.0       0.0725143290001
 2000.0       0.0762926202099
 2100.0       0.0800726732874
 2200.0       0.0838542495756
 2300.0       0.0876371516001
 2400.0       0.0914212145647
 2500.0       0.0952062998682
 2600.0       0.0989922901042
 2700.0       0.1027790851630
 2800.0       0.1065665991624
 2900.0       0.1103547580093
 3000.0       0.1141434974453
 3100.0       0.1179327614690
 3200.0       0.1217225010515
 3300.0       0.1255126730851
 3400.0       0.1293032395160
 3500.0       0.1330941666255
 3600.0       0.1368854244296
 3700.0       0.1406769861765
 3800.0       0.1444688279228
 3900.0       0.1482609281743
 4000.0       0.1520532675809
 4100.0       0.1558458286759
 4200.0       0.1596385956524
 4300.0       0.1634315541708
 4400.0       0.1672246911923
 4500.0       0.1710179948351
 4600.0       0.1748114542484
 4700.0       0.1786050595035
 4800.0       0.1823988014975
 4900.0       0.1861926718694
 5000.0       0.1899866629261
 5100.0       0.1937807675770
 5200.0       0.1975749792760
 5300.0       0.2013692919705
 5400.0       0.2051637000556
 5500.0       0.2089581983335
 5600.0       0.2127527819771
 5700.0       0.2165474464978
 5800.0       0.2203421877161
 5900.0       0.2241370017357
 6000.0       0.2279318849195
# V = 124.170000 (a.u.^3)
    5.0       0.0092163674261
  100.0       0.0096140737812
  200.0       0.0114750178177
  300.0       0.0142195265544
  400.0       0.0173919464440
  500.0       0.0207847998560
  600.0       0.0243019069854
  700.0       0.0278948273480
  800.0       0.0315370458986
  900.0       0.0352129865465
 1000.0       0.0389129528516
 1100.0       0.0426306142745
 1200.0       0.0463616715249
 1300.0       0.0501031066846
 1400.0       0.0538527410934
 1500.0       0.0576089637184
 1600.0       0.0613705582313
 1700.0       0.0651365894724
 1800.0       0.0689063268646
 1900.0       0.0726791915041
 2000.0       0.0764547188281
 2100.0       0.0802325317693
 2200.0       0.0840123211203
 2300.0       0.0877938309506
 2400.0       0.0915768476232
 2500.0       0.0953611914168
 2600.0       0.0991467100612
 2700.0       0.1029332736953
 2800.0       0.1067207708952
 2900.0       0.1105091055183
 3000.0       0.1142981941724
 3100.0       0.1180879641722
 3200.0       0.1218783518756
 3300.0       0.1256693013209
 3400.0       0.1294607631033
 3500.0       0.1332526934420
 3600.0       0.1370450534032
 3700.0       0.1408378082475
 3800.0       0.1446309268803
 3900.0       0.1484243813865
 4000.0       0.1522181466340
 4100.0       0.1560121999359
 4200.0       0.1598065207602
 4300.0       0.1636010904800
 4400.0       0.1673958921576
 4500.0       0.1711909103574
 4600.0       0.1749861309831
 4700.0       0.1787815411355
 4800.0       0.1825771289883
 4900.0       0.1863728836785
 5000.0       0.1901687952106
 5100.0       0.1939648543718
 5200.0       0.1977610526566
 5300.0       0.2015573822004
 5400.0       0.2053538357202
 5500.0       0.2091504064620
 5600.0       0.2129470881534
 5700.0       0.2167438749614
 5800.0       0.2205407614551
 5900.0       0.2243377425710
 6000.0       0.2281348135827
# V = 116.746000 (a.u.^3)
    5.0       0.0104397352552
  100.0       0.0107517571545
  200.0       0.0123774235459
  300.0       0.0149249564151
  400.0       0.0179600019798
  500.0       0.0212571735500
  600.0       0.0247054370007
  700.0       0.0282470747068
  800.0       0.0318499122770
  900.0       0.0354948321766
 1000.0       0.0391698425478
 1100.0       0.0428670725303
 1200.0       0.0465811560841
 1300.0       0.0503083155754
 1400.0       0.0540458178356
 1500.0       0.0577916382684
 1600.0       0.0615442461736
 1700.0       0.0653024633578
 1800.0       0.0690653685201
 1900.0       0.0728322310625
 2000.0       0.0766024643063
 2100.0       0.0803755918029
 2200.0       0.0841512226637
 2300.0       0.0879290332178
 2400.0       0.0917087531854
 2500.0       0.0954901551240
 2600.0       0.0992730462783
 2700.0       0.1030572622198
 2800.0       0.1068426618350
 2900.0       0.1106291233397
 3000.0       0.1144165410826
 3100.0       0.1182048229628
 3200.0       0.1219938883267
 3300.0       0.1257836662455
 3400.0       0.1295740940930
 3500.0       0.1333651163669
 3600.0       0.1371566837045
 3700.0       0.1409487520573
 3800.0       0.1447412819948
 3900.0       0.1485342381159
 4000.0       0.1523275885467
 4100.0       0.1561213045125
 4200.0       0.1599153599702
 4300.0       0.1637097312918
 4400.0       0.1675043969910
 4500.0       0.1712993374862
 4600.0       0.1750945348939
 4700.0       0.1788899728485
 4800.0       0.1826856363451
 4900.0       0.1864815116008
 5000.0       0.1902775859327
 5100.0       0.1940738476505
 5200.0       0.1978702859614
 5300.0       0.2016668908854
 5400.0       0.2054636531805
 5500.0       0.2092605642752
 5600.0       0.2130576162097
 5700.0       0.2168548015814
 5800.0       0.2206521134976
 5900.0       0.2244495455319
 6000.0       0.2282470916859
# V = 109.593000 (a.u.^3)
    5.0       0.0116911007883
  100.0       0.0119433455631
  200.0       0.0133719365181
  300.0       0.0157248798736
  400.0       0.0186135383403
  500.0       0.0218049195655
  600.0       0.0251755127466
  700.0       0.0286585843231
  800.0       0.0322160912302
  900.0       0.0358251090003
 1000.0       0.0394711224302
 1100.0       0.0431445418140
 1200.0       0.0468387980624
 1300.0       0.0505492500775
 1400.0       0.0542725307413
 1500.0       0.0580061404828
 1600.0       0.0617481862405
 1700.0       0.0654972088703
 1800.0       0.0692520660648
 1900.0       0.0730118510979
 2000.0       0.0767758352702
 2100.0       0.0805434263907
 2200.0       0.0843141383276
 2300.0       0.0880875683405
 2400.0       0.0918633799751
 2500.0       0.0956412899929
 2600.0       0.0994210582708
 2700.0       0.1032024799118
 2800.0       0.1069853790255
 2900.0       0.1107696037779
 3000.0       0.1145550224206
 3100.0       0.1183415200806
 3200.0       0.1221289961455
 3300.0       0.1259173621196
 3400.0       0.1297065398556
 3500.0       0.1334964600862
 3600.0       0.1372870611993
 3700.0       0.1410782882093
 3800.0       0.1448700918910
 3900.0       0.1486624280448
 4000.0       0.1524552568717
 4100.0       0.1562485424398
 4200.0       0.1600422522257
 4300.0       0.1638363567202
 4400.0       0.1676308290871
 4500.0       0.1714256448677
 4600.0       0.1752207817230
 4700.0       0.1790162192093
 4800.0       0.1828119385817
 4900.0       0.1866079226207
 5000.0       0.1904041554810
 5100.0       0.1942006225566
 5200.0       0.1979973103620
 5300.0       0.2017942064274
 5400.0       0.2055912992042
 5500.0       0.2093885779819
 5600.0       0.2131860328134
 5700.0       0.2169836544481
 5800.0       0.2207814342722
 5900.0       0.2245793642547
 6000.0       0.2283774368988
# V = 102.777000 (a.u.^3)
    5.0       0.0129637888018
  100.0       0.0131708112201
  200.0       0.0144325389487
  300.0       0.0165932593997
  400.0       0.0193228081651
  500.0       0.0223920737343
  600.0       0.0256688088637
  700.0       0.0290781756519
  800.0       0.0325763380793
  900.0       0.0361364251821
 1000.0       0.0397412271374
 1100.0       0.0433792824449
 1200.0       0.0470426938651
 1300.0       0.0507258574859
 1400.0       0.0544246939614
 1500.0       0.0581361669837
 1600.0       0.0618579721234
 1700.0       0.0655883301068
 1800.0       0.0693258460381
 1900.0       0.0730694113896
 2000.0       0.0768181343976
 2100.0       0.0805712897430
 2200.0       0.0843282815778
 2300.0       0.0880886159586
 2400.0       0.0918518800147
 2500.0       0.0956177260129
 2600.0       0.0993858590295
 2700.0       0.1031560273138
 2800.0       0.1069280146830
 2900.0       0.1107016344670
 3000.0       0.1144767246474
 3100.0       0.1182531439245
 3200.0       0.1220307685136
 3300.0       0.1258094895165
 3400.0       0.1295892107519
 3500.0       0.1333698469543
 3600.0       0.1371513222702
 3700.0       0.1409335689954
 3800.0       0.1447165265107
 3900.0       0.1485001403798
 4000.0       0.1522843615812
 4100.0       0.1560691458519
 4200.0       0.1598544531244
 4300.0       0.1636402470413
 4400.0       0.1674264945363
 4500.0       0.1712131654698
 4600.0       0.1750002323129
 4700.0       0.1787876698706
 4800.0       0.1825754550398
 4900.0       0.1863635665970
 5000.0       0.1901519850106
 5100.0       0.1939406922761
 5200.0       0.1977296717698
 5300.0       0.2015189081188
 5400.0       0.2053083870856
 5500.0       0.2090980954654
 5600.0       0.2128880209940
 5700.0       0.2166781522658
 5800.0       0.2204684786598
 5900.0       0.2242589902732
 6000.0       0.2280496778620
# V = 96.163900 (a.u.^3)
    5.0       0.0143529235656
  100.0       0.0145242106131
  200.0       0.0156477236503
  300.0       0.0176314049308
  400.0       0.0202040024574
  500.0       0.0231499445314
  600.0       0.0263321646642
  700.0       0.0296687336058
  800.0       0.0331100737318
  900.0       0.0366251596570
 1000.0       0.0401938429393
 1100.0       0.0438025734191
 1200.0       0.0474419480894
 1300.0       0.0511052588138
 1400.0       0.0547876023163
 1500.0       0.0584853172161
 1600.0       0.0621956174857
 1700.0       0.0659163474794
 1800.0       0.0696458143105
 1900.0       0.0733826706949
 2000.0       0.0771258314828
 2100.0       0.0808744131514
 2200.0       0.0846276892468
 2300.0       0.0883850570955
 2400.0       0.0921460126084
 2500.0       0.0959101309781
 2600.0       0.0996770517274
 2700.0       0.1034464670088
 2800.0       0.1072181123621
 2900.0       0.1109917593480
 3000.0       0.1147672096314
 3100.0       0.1185442901899
 3200.0       0.1223228494084
 3300.0       0.1261027538736
 3400.0       0.1298838857268
 3500.0       0.1336661404646
 3600.0       0.1374494251021
 3700.0       0.1412336566310
 3800.0       0.1450187607181
 3900.0       0.1488046706025
 4000.0       0.1525913261563
 4100.0       0.1563786730817
 4200.0       0.1601666622223
 4300.0       0.1639552489688
 4400.0       0.1677443927457
 4500.0       0.1715340565661
 4600.0       0.1753242066438
 4700.0       0.1791148120546
 4800.0       0.1829058444401
 4900.0       0.1866972777468
 5000.0       0.1904890879971
 5100.0       0.1942812530866
 5200.0       0.1980737526048
 5300.0       0.2018665676760
 5400.0       0.2056596808180
 5500.0       0.2094530758157
 5600.0       0.2132467376082
 5700.0       0.2170406521886
 5800.0       0.2208348065128
 5900.0       0.2246291884187
 6000.0       0.2284237865525
# V = 89.955400 (a.u.^3)
    5.0       0.0157842879082
  100.0       0.0159272610554
  200.0       0.0169337363984
  300.0       0.0187531556264
  400.0       0.0211661906622
  500.0       0.0239790777371
  600.0       0.0270550463941
  700.0       0.0303070986789
  800.0       0.0336805736280
  900.0       0.0371404320313
 1000.0       0.0406635465926
 1100.0       0.0442341850006
 1200.0       0.0478413384613
 1300.0       0.0514771038218
 1400.0       0.0551356763145
 1500.0       0.0588127048760
 1600.0       0.0625048685848
 1700.0       0.0662095915589
 1800.0       0.0699248467576
 1900.0       0.0736490182142
 2000.0       0.0773808025063
 2100.0       0.0811191371016
 2200.0       0.0848631474473
 2300.0       0.0886121073510
 2400.0       0.0923654089329
 2500.0       0.0961225395672
 2600.0       0.0998830639938
 2700.0       0.1036466103024
 2800.0       0.1074128588462
 2900.0       0.1111815333998
 3000.0       0.1149523940474
 3100.0       0.1187252314212
 3200.0       0.1224998620011
 3300.0       0.1262761242534
 3400.0       0.1300538754413
 3500.0       0.1338329889731
 3600.0       0.1376133521862
 3700.0       0.1413948644864
 3800.0       0.1451774357761
 3900.0       0.1489609851229
 4000.0       0.1527454396239
 4100.0       0.1565307334364
 4200.0       0.1603168069436
 4300.0       0.1641036060375
 4400.0       0.1678910814971
 4500.0       0.1716791884500
 4600.0       0.1754678859028
 4700.0       0.1792571363311
 4800.0       0.1830469053210
 4900.0       0.1868371612531
 5000.0       0.1906278750255
 5100.0       0.1944190198074
 5200.0       0.1982105708229
 5300.0       0.2020025051576
 5400.0       0.2057948015873
 5500.0       0.2095874404250
 5600.0       0.2133804033845
 5700.0       0.2171736734580
 5800.0       0.2209672348064
 5900.0       0.2247610726604
 6000.0       0.2285551732322
# V = 83.949400 (a.u.^3)
    5.0       0.0173025589085
  100.0       0.0174219366600
  200.0       0.0183261010713
  300.0       0.0199943795333
  400.0       0.0222481963671
  500.0       0.0249208126681
  600.0       0.0278807923218
  700.0       0.0310384136051
  800.0       0.0343347968047
  900.0       0.0377311228463
 1000.0       0.0412012768572
 1100.0       0.0447272534569
 1200.0       0.0482963285344
 1300.0       0.0518992995129
 1400.0       0.0555293684286
 1500.0       0.0591814167447
 1600.0       0.0628515236445
 1700.0       0.0665366389937
 1800.0       0.0702343567320
 1900.0       0.0739427548610
 2000.0       0.0776602804782
 2100.0       0.0813856658460
 2200.0       0.0851178662161
 2300.0       0.0888560131425
 2400.0       0.0925993789906
 2500.0       0.0963473496443
 2600.0       0.1000994032960
 2700.0       0.1038550938006
 2800.0       0.1076140374927
 2900.0       0.1113759026568
 3000.0       0.1151404010510
 3100.0       0.1189072810325
 3200.0       0.1226763219438
 3300.0       0.1264473294988
 3400.0       0.1302201319671
 3500.0       0.1339945770007
 3600.0       0.1377705289811
 3700.0       0.1415478667885
 3800.0       0.1453264819189
 3900.0       0.1491062768862
 4000.0       0.1528871638611
 4100.0       0.1566690635058
 4200.0       0.1604519039740
 4300.0       0.1642356200486
 4400.0       0.1680201523950
 4500.0       0.1718054469139
 4600.0       0.1755914541767
 4700.0       0.1793781289330
 4800.0       0.1831654296789
 4900.0       0.1869533182774
 5000.0       0.1907417596240
 5100.0       0.1945307213519
 5200.0       0.1983201735704
 5300.0       0.2021100886323
 5400.0       0.2059004409283
 5500.0       0.2096912067023
 5600.0       0.2134823638868
 5700.0       0.2172738919562
 5800.0       0.2210657717938
 5900.0       0.2248579855736
 6000.0       0.2286505166531
# V = 78.213300 (a.u.^3)
    5.0       0.0188859375066
  100.0       0.0189876990237
  200.0       0.0198047518314
  300.0       0.0213374821822
  400.0       0.0234362930975
  500.0       0.0259637218947
  600.0       0.0287985904665
  700.0       0.0318513476823
  800.0       0.0350602124588
  900.0       0.0383831043404
 1000.0       0.0417910793055
 1100.0       0.0452638649841
 1200.0       0.0487869690387
 1300.0       0.0523498184786
 1400.0       0.0559445503736
 1500.0       0.0595652128997
 1600.0       0.0632072275505
 1700.0       0.0668670202296
 1800.0       0.0705417635136
 1900.0       0.0742291934401
 2000.0       0.0779274771446
 2100.0       0.0816351157873
 2200.0       0.0853508723608
 2300.0       0.0890737173052
 2400.0       0.0928027870469
 2500.0       0.0965373520379
 2600.0       0.1002767918642
 2700.0       0.1040205756752
 2800.0       0.1077682466579
 2900.0       0.1115194096190
 3000.0       0.1152737209749
 3100.0       0.1190308806239
 3200.0       0.1227906253022
 3300.0       0.1265527231183
 3400.0       0.1303169690291
 3500.0       0.1340831810744
 3600.0       0.1378511972268
 3700.0       0.1416208727415
 3800.0       0.1453920779179
 3900.0       0.1491646961984
 4000.0       0.1529386225490
 4100.0       0.1567137620721
 4200.0       0.1604900288151
 4300.0       0.1642673447425
 4400.0       0.1680456388468
 4500.0       0.1718248463757
 4600.0       0.1756049081597
 4700.0       0.1793857700235
 4800.0       0.1831673822716
 4900.0       0.1869496992343
 5000.0       0.1907326788696
 5100.0       0.1945162824098
 5200.0       0.1983004740497
 5300.0       0.2020852206690
 5400.0       0.2058704915857
 5500.0       0.2096562583359
 5600.0       0.2134424944774
 5700.0       0.2172291754132
 5800.0       0.2210162782337
 5900.0       0.2248037815745
 6000.0       0.2285916654883
# V = 72.747100 (a.u.^3)
    5.0       0.0203935568767
  100.0       0.0205014423379
  200.0       0.0212920633038
  300.0       0.0227390372327
  400.0       0.0247126015909
  500.0       0.0271086952258
  600.0       0.0298233963372
  700.0       0.0327719502830
  800.0       0.0358921311391
  900.0       0.0391398075923
 1000.0       0.0424837794497
 1100.0       0.0459017647807
 1200.0       0.0493776059232
 1300.0       0.0528993875533
 1400.0       0.0564581746302
 1500.0       0.0600471594308
 1600.0       0.0636610775144
 1700.0       0.0672958017572
 1800.0       0.0709480557366
 1900.0       0.0746152082579
 2000.0       0.0782951238762
 2100.0       0.0819860526354
 2200.0       0.0856865476704
 2300.0       0.0893954028778
 2400.0       0.0931116052293
 2500.0       0.0968342979004
 2600.0       0.1005627514781
 2700.0       0.1042963412701
 2800.0       0.1080345292675
 2900.0       0.1117768496920
 3000.0       0.1155228973254
 3100.0       0.1192723180221
 3200.0       0.1230248009419
 3300.0       0.1267800721532
 3400.0       0.1305378893334
 3500.0       0.1342980373530
 3600.0       0.1380603245781
 3700.0       0.1418245797580
 3800.0       0.1455906493930
 3900.0       0.1493583954992
 4000.0       0.1531276937015
 4100.0       0.1568984316002
 4200.0       0.1606705073676
 4300.0       0.1644438285359
 4400.0       0.1682183109484
 4500.0       0.1719938778484
 4600.0       0.1757704590845
 4700.0       0.1795479904169
 4800.0       0.1833264129085
 4900.0       0.1871056723895
 5000.0       0.1908857189862
 5100.0       0.1946665067036
 5200.0       0.1984479930566
 5300.0       0.2022301387415
 5400.0       0.2060129073446
 5500.0       0.2097962650811
 5600.0       0.2135801805630
 5700.0       0.2173646245903
 5800.0       0.2211495699637
 5900.0       0.2249349913164
 6000.0       0.2287208649628
# V = 67.550900 (a.u.^3)
    5.0       0.0223117441643
  100.0       0.0224034988212
  200.0       0.0231142842453
  300.0       0.0244459532142
  400.0       0.0262759806998
  500.0       0.0285229670042
  600.0       0.0310993777730
  700.0       0.0339263825939
  800.0       0.0369420765306
  900.0       0.0401005442168
 1000.0       0.0433683071393
 1100.0       0.0467209239879
 1200.0       0.0501403813913
 1300.0       0.0536132314677
 1400.0       0.0571292936268
 1500.0       0.0606807527005
 1600.0       0.0642615286437
 1700.0       0.0678668314524
 1800.0       0.0714928430038
 1900.0       0.0751364866770
 2000.0       0.0787952583807
 2100.0       0.0824671010635
 2200.0       0.0861503104003
 2300.0       0.0898434631038
 2400.0       0.0935453618504
 2500.0       0.0972549925442
 2600.0       0.1009714908410
 2700.0       0.1046941156957
 2800.0       0.1084222282833
 2900.0       0.1121552750729
 3000.0       0.1158927741359
 3100.0       0.1196343039945
 3200.0       0.1233794944800
 3300.0       0.1271280191932
 3400.0       0.1308795892501
 3500.0       0.1346339480651
 3600.0       0.1383908669784
 3700.0       0.1421501415712
 3800.0       0.1459115885482
 3900.0       0.1496750430867
 4000.0       0.1534403565745
 4100.0       0.1572073946705
 4200.0       0.1609760356372
 4300.0       0.1647461689001
 4400.0       0.1685176938007
 4500.0       0.1722905185117
