# T (K)      fittedE (Ry.)      P (GPa)
# V = 131.930000 (a.u.^3)
    0.0      -0.8215981749983     -10.8675960490014
  100.0      -0.8210153305667     -10.7819292906497
  200.0      -0.8190243585022     -10.3432624566717
  300.0      -0.8160001209260      -9.6612862921407
  400.0      -0.8127027049185      -8.8580157619506
  500.0      -0.8092028451562      -7.9963389995346
  600.0      -0.8056214902242      -7.1045047459344
  700.0      -0.8019796935534      -6.1955566116399
  800.0      -0.7983018097404      -5.2760108408600
  900.0      -0.7945978578771      -4.3494326702523
 1000.0      -0.7908756464693      -3.4179317495376
 1100.0      -0.7871397085547      -2.4828437889837
 1200.0      -0.7833933806182      -1.5450374208129
 1300.0      -0.7796391146356      -0.6051318227190
 1400.0      -0.7758784624103       0.3364347531820
 1500.0      -0.7721126697684       1.2793433108277
 1600.0      -0.7683427115109       2.2233527086628
 1700.0      -0.7645693401213       3.1682752270099
 1800.0      -0.7607932033818       4.1139610853608
 1900.0      -0.7570145634892       5.0602901294030
 2000.0      -0.7532339452854       6.0071761099964
 2100.0      -0.7494516453009       6.9545296422625
 2200.0      -0.7456676563629       7.9022962427451
 2300.0      -0.7418825087861       8.8504232571691
 2400.0      -0.7380960932921       9.7988607260343
 2500.0      -0.7343087937121      10.7475793334524
 2600.0      -0.7305206554535      11.6965328272809
 2700.0      -0.7267315415069      12.6457057738070
 2800.0      -0.7229420290592      13.5950679098879
 2900.0      -0.7191516184557      14.5445949008864
 3000.0      -0.7153607090230      15.4942817492195
 3100.0      -0.7115695391820      16.4440966728710
 3200.0      -0.7077780450448      17.3940273575347
 3300.0      -0.7039858305083      18.3440513140861
 3400.0      -0.7001929041580      19.2941864097018
 3500.0      -0.6964004126981      20.2444068561991
 3600.0      -0.6926068225484      21.1946953580207
 3700.0      -0.6888136004197      22.1450727547617
 3800.0      -0.6850201174300      23.0954819988466
 3900.0      -0.6812258235707      24.0459654390768
 4000.0      -0.6774321926241      24.9964847606479
 4100.0      -0.6736377410075      25.9470426420030
 4200.0      -0.6698429856050      26.8976429701514
 4300.0      -0.6660490151104      27.8482744760330
 4400.0      -0.6622542490061      28.7989105711984
 4500.0      -0.6584591994955      29.7495864183818
 4600.0      -0.6546645571619      30.7002658096030
 4700.0      -0.6508686371401      31.6509703847238
 4800.0      -0.6470737085301      32.6016981512438
 4900.0      -0.6432786638424      33.5524190909998
 5000.0      -0.6394829572016      34.5031541579109
 5100.0      -0.6356878763662      35.4538876242889
 5200.0      -0.6318923413306      36.4046168933502
 5300.0      -0.6280964722391      37.3553463910592
 5400.0      -0.6243007235412      38.3060788448549
 5500.0      -0.6205053545522      39.2568016791196
 5600.0      -0.6167100250339      40.2075068095274
 5700.0      -0.6129135146781      41.1582023204042
 5800.0      -0.6091179236737      42.1089001504209
 5900.0      -0.6053227209537      43.0595647938720
 6000.0      -0.6015256144992      44.0102237211333
# V = 131.094979 (a.u.^3)
    0.0      -0.8221563748749      -8.7907603450842
  100.0      -0.8215844825140      -8.7057757405072
  200.0      -0.8196186441191      -8.2700532833002
  300.0      -0.8166189685943      -7.5919285405587
  400.0      -0.8133372391721      -6.7924394333294
  500.0      -0.8098477547354      -5.9341981827235
  600.0      -0.8062732360755      -5.0454705150325
  700.0      -0.8026363144743      -4.1393758864210
  800.0      -0.7989620557293      -3.2224991843729
  900.0      -0.7952609242905      -2.2984563399844
 1000.0      -0.7915409705466      -1.3693925903418
 1100.0      -0.7878068928828      -0.4366684866411
 1200.0      -0.7840621284433       0.4988294880508
 1300.0      -0.7803091899382       1.4364696947461
 1400.0      -0.7765496862336       2.3758047027609
 1500.0      -0.7727848988908       3.3165084932852
 1600.0      -0.7690158277034       4.2583348781847
 1700.0      -0.7652432435220       5.2010921364488
 1800.0      -0.7614678051820       6.1446274334908
 1900.0      -0.7576897992399       7.0888182958584
 2000.0      -0.7539097500826       8.0335764329150
 2100.0      -0.7501279620443       8.9788111042284
 2200.0      -0.7463444508116       9.9244664707889
 2300.0      -0.7425597308921      10.8704888330752
 2400.0      -0.7387737144451      11.8168274149886
 2500.0      -0.7349867748706      12.7634522473619
 2600.0      -0.7311989651568      13.7103165390975
 2700.0      -0.7274101653492      14.6574043011956
 2800.0      -0.7236209251421      15.6046848785461
 2900.0      -0.7198307828215      16.5521337405283
 3000.0      -0.7160401173843      17.4997453016080
 3100.0      -0.7122491603500      18.4474877307732
 3200.0      -0.7084578489762      19.3953485993938
 3300.0      -0.7046658244371      20.3433054020135
 3400.0      -0.7008730996044      21.2913752545381
 3500.0      -0.6970807415862      22.2395325321048
 3600.0      -0.6932873284855      23.1877600371477
 3700.0      -0.6894942245571      24.1360778906556
 3800.0      -0.6857008499510      25.0844298616514
 3900.0      -0.6819066945336      26.0328573680142
 4000.0      -0.6781131316849      26.9813226828904
 4100.0      -0.6743187803767      27.9298280764240
 4200.0      -0.6705241254635      28.8783774029602
 4300.0      -0.6667301814514      29.8269594261029
 4400.0      -0.6629354782245      30.7755478513783
 4500.0      -0.6591404920703      31.7241772209056
 4600.0      -0.6553458699882      32.6728117513358
 4700.0      -0.6515500402916      33.6214726905635
 4800.0      -0.6477551224537      34.5701579970923
 4900.0      -0.6439600855188      35.5188381263862
 5000.0      -0.6401644099289      36.4675335097412
 5100.0      -0.6363693127889      37.4162287624405
 5200.0      -0.6325737732346      38.3649211897087
 5300.0      -0.6287779161858      39.3136151521823
 5400.0      -0.6249821634510      40.2623132139806
 5500.0      -0.6211867481292      41.2110030771294
 5600.0      -0.6173913662685      42.1596765919749
 5700.0      -0.6135948673757      43.1083418755070
 5800.0      -0.6097992244383      44.0570105070931
 5900.0      -0.6060039263200      45.0056475689789
 6000.0      -0.6022068824343      45.9542800905766
# V = 130.259958 (a.u.^3)
    0.0      -0.8225951006794      -6.6577475760276
  100.0      -0.8220340821341      -6.5734576355153
  200.0      -0.8200932504104      -6.1407330096210
  300.0      -0.8171180970671      -5.4665300141373
  400.0      -0.8138521152910      -4.6708919367303
  500.0      -0.8103730981576      -3.8161495659828
  600.0      -0.8068055077648      -2.9305856297684
  700.0      -0.8031735413291      -2.0273966384920
  800.0      -0.7995029746351      -1.1132373641425
  900.0      -0.7958047189381      -0.1917753305131
 1000.0      -0.7920870686890       0.7348079030057
 1100.0      -0.7883548893939       1.6651264053347
 1200.0      -0.7846117204263       2.5982755159229
 1300.0      -0.7808601365872       3.5336108405132
 1400.0      -0.7771018046312       4.4706754268822
 1500.0      -0.7733380425919       5.4091364457881
 1600.0      -0.7695698758541       6.3487422215540
 1700.0      -0.7657980941274       7.2892970481687
 1800.0      -0.7620233677338       8.2306450369666
 1900.0      -0.7582460076897       9.1726611830399
 2000.0      -0.7544665383317      10.1152552359154
 2100.0      -0.7506852719958      11.0583349852837
 2200.0      -0.7469022471207      12.0018432365813
 2300.0      -0.7431179628837      12.9457252123768
 2400.0      -0.7393323527305      13.8899293853010
 2500.0      -0.7355457799375      14.8344249205920
 2600.0      -0.7317583050867      15.7791646678489
 2700.0      -0.7279698251283      16.7241319521292
 2800.0      -0.7241808627855      17.6692957916834
 2900.0      -0.7203909937696      18.6146313292511
 3000.0      -0.7166005771533      19.5601325546671
 3100.0      -0.7128098376916      20.5057675225956
 3200.0      -0.7090187139216      21.4515236410867
 3300.0      -0.7052268836363      22.3973783393562
 3400.0      -0.7014343639527      23.3433479983713
 3500.0      -0.6976421438239      24.2894073035765
 3600.0      -0.6938489111335      25.2355389104184
 3700.0      -0.6900559295011      26.1817624499264
 3800.0      -0.6862626672624      27.1280223933983
 3900.0      -0.6824686535075      28.0743592604547
 4000.0      -0.6786751629494      29.0207357162094
 4100.0      -0.6748809154115      29.9671540144744
 4200.0      -0.6710863642564      30.9136176176277
 4300.0      -0.6672924510855      31.8601154525926
 4400.0      -0.6634978143207      32.8066215841989
 4500.0      -0.6597028949774      33.7531697706312
 4600.0      -0.6559082971932      34.6997248328234
 4700.0      -0.6521125605942      35.6463074797150
 4800.0      -0.6483176575058      36.5929157841334
 4900.0      -0.6445226322254      37.5395204138583
 5000.0      -0.6407269912188      38.4861415878700
 5100.0      -0.6369318819337      39.4327640031116
 5200.0      -0.6331363418467      40.3793849811397
 5300.0      -0.6293405004285      41.3260088335947
 5400.0      -0.6255447474265      42.2726379612765
 5500.0      -0.6217492902784      43.2192602458623
 5600.0      -0.6179538605655      44.1658677010182
 5700.0      -0.6141573766029      45.1124681497584
 5800.0      -0.6103616861651      46.0590730081309
 5900.0      -0.6065662977465      47.0056479953280
 6000.0      -0.6027693189460      47.9522194874832
# V = 129.424936 (a.u.^3)
    0.0      -0.8229111101946      -4.4666634128194
  100.0      -0.8223608857907      -4.3830806956577
  200.0      -0.8204449314110      -3.9534084825240
  300.0      -0.8174942595752      -3.2831990296436
  400.0      -0.8142440875483      -2.4914830424658
  500.0      -0.8107756314061      -1.6403042915107
  600.0      -0.8072150630690      -0.7579624572382
  700.0      -0.8035881335192       0.1422677034727
  800.0      -0.7999213272630       1.0536602439025
  900.0      -0.7962260038168       1.9724951493023
 1000.0      -0.7925107039038       2.8965536070553
 1100.0      -0.7887804619524       3.8244239468955
 1200.0      -0.7850389211627       4.7551829224888
 1300.0      -0.7812887198080       5.6881731066649
 1400.0      -0.7775315833727       6.6229279603334
 1500.0      -0.7737688671139       7.5591073865252
 1600.0      -0.7700016226189       8.4964543200130
 1700.0      -0.7662306589578       9.4347688901328
 1800.0      -0.7624566583810      10.3738920724806
 1900.0      -0.7586799564685      11.3136963796889
 2000.0      -0.7549010779188      12.2540894217965
 2100.0      -0.7511203432721      13.1949776492720
 2200.0      -0.7473378136112      14.1363022343551
 2300.0      -0.7435539732688      15.0780075340198
 2400.0      -0.7397687768231      16.0200410899744
 2500.0      -0.7359825777402      16.9623712345267
 2600.0      -0.7321954442102      17.9049504743044
 2700.0      -0.7284072899356      18.8477613994260
 2800.0      -0.7246186111991      19.7907727015028
 2900.0      -0.7208290206128      20.7339592292990
 3000.0      -0.7170388577388      21.6773143520343
 3100.0      -0.7132483407064      22.6208063203566
 3200.0      -0.7094574094686      23.5644220686890
 3300.0      -0.7056657777686      24.5081391405709
 3400.0      -0.7018734669268      25.4519732310267
 3500.0      -0.6980813892064      26.3958990908290
 3600.0      -0.6942883403381      27.3398994080881
 3700.0      -0.6904954851566      28.2839932748785
 3800.0      -0.6867023393239      29.2281257667808
 3900.0      -0.6829084704913      30.1723366684771
 4000.0      -0.6791150564695      31.1165890370483
 4100.0      -0.6753209162020      32.0608848649950
 4200.0      -0.6715264721062      33.0052275330353
 4300.0      -0.6677325941832      33.9496059027646
 4400.0      -0.6639380274981      34.8939944799760
 4500.0      -0.6601431784484      35.8384262389193
 4600.0      -0.6563486090445      36.7828666048115
 4700.0      -0.6525529683281      37.7273357966329
 4800.0      -0.6487580839972      38.6718318055511
 4900.0      -0.6449630743003      39.6163258056369
 5000.0      -0.6411674714283      40.5608375422434
 5100.0      -0.6373723541852      41.5053519572932
 5200.0      -0.6335768175740      42.4498663396790
 5300.0      -0.6297809953886      43.3943849357134
 5400.0      -0.6259852459042      44.3389099828765
 5500.0      -0.6221897514619      45.2834295424972
 5600.0      -0.6183942784109      46.2279357099015
 5700.0      -0.6145978128499      47.1724362101118
 5800.0      -0.6108020793632      48.1169422468603
 5900.0      -0.6070066057711      49.0614199476387
 6000.0      -0.6032096945554      50.0058953619412
# V = 128.589915 (a.u.^3)
    0.0      -0.8231010515096      -2.2155366028631
  100.0      -0.8225615401255      -2.1326741582970
  200.0      -0.8206703313854      -1.7061100009500
  300.0      -0.8177440995597      -1.0399673885598
  400.0      -0.8145098004461      -0.2522460055635
  500.0      -0.8110520007292       0.5953030791075
  600.0      -0.8074985500718       1.4743632650710
  700.0      -0.8038767407928       2.3715803077441
  800.0      -0.8002137648012       3.2801558771107
  900.0      -0.7965214313389       4.1963162262363
 1000.0      -0.7928085296415       5.1178048646468
 1100.0      -0.7890802648904       6.0431837296105
 1200.0      -0.7853403857370       6.9715105643788
 1300.0      -0.7815915953333       7.9021146312249
 1400.0      -0.7778356787512       8.8345196082076
 1500.0      -0.7740740292374       9.7683779509789
 1600.0      -0.7703077252047      10.7034270904371
 1700.0      -0.7665375955959      11.6394629096058
 1800.0      -0.7627643350402      12.5763232156786
 1900.0      -0.7589883037879      13.5138779081725
 2000.0      -0.7552100273202      14.4520324413061
 2100.0      -0.7514298345876      15.3906917140109
 2200.0      -0.7476478092086      16.3297956409646
 2300.0      -0.7438644211654      17.2692872235877
 2400.0      -0.7400796460133      18.2091133993055
 2500.0      -0.7362938277270      19.1492414715117
 2600.0      -0.7325070421201      20.0896236528584
 2700.0      -0.7287192194919      21.0302417005337
 2800.0      -0.7249308302254      21.9710640611693
 2900.0      -0.7211415233005      22.9120652405579
 3000.0      -0.7173516191890      23.8532381016282
 3100.0      -0.7135613295364      24.7945507480403
 3200.0      -0.7097705958499      25.7359900325574
 3300.0      -0.7059791671439      26.6775333680633
 3400.0      -0.7021870688999      27.6191957799715
 3500.0      -0.6983951381802      28.5609521660422
 3600.0      -0.6946022765977      29.5027851817220
 3700.0      -0.6908095520832      30.4447133637982
 3800.0      -0.6870165267510      31.3866825554541
 3900.0      -0.6832228061411      32.3287315287896
 4000.0      -0.6794294729551      33.2708238635087
 4100.0      -0.6756354434970      34.2129614214561
 4200.0      -0.6718411097944      35.1551472240466
 4300.0      -0.6680472715751      36.0973702961955
 4400.0      -0.6642527786206      37.0396055029990
 4500.0      -0.6604580033761      37.9818850511044
 4600.0      -0.6566634664714      38.9241749210156
 4700.0      -0.6528679244350      39.8664948580859
 4800.0      -0.6490730629002      40.8088428208188
 4900.0      -0.6452780727435      41.7511903915845
 5000.0      -0.6414825115759      42.6935569401007
 5100.0      -0.6376873905896      43.6359275879416
 5200.0      -0.6338918614849      44.5782996240002
 5300.0      -0.6300960621478      45.5206771965970
 5400.0      -0.6263003199809      46.4630623962243
 5500.0      -0.6225047928017      47.4054435128589
 5600.0      -0.6187092809497      48.3478127561503
 5700.0      -0.6149128372653      49.2901775898095
 5800.0      -0.6111170651997      50.2325489889212
 5900.0      -0.6073215115889      51.1748937505878
 6000.0      -0.6035246704390      52.1172373526844
# V = 127.754894 (a.u.^3)
    0.0      -0.8231614585644       0.0976841004330
  100.0      -0.8226325776020       0.1798132558225
  200.0      -0.8207659803712       0.6032124894589
  300.0      -0.8178641462146       1.2652134772625
  400.0      -0.8146457842581       2.0488662395838
  500.0      -0.8111987381844       2.8927181416016
  600.0      -0.8076525027084       3.7684359569871
  700.0      -0.8040358987910       4.6625844182479
  800.0      -0.8003768243682       5.5682917178296
  900.0      -0.7966875398795       6.4817293150340
 1000.0      -0.7929770853446       7.4006022249308
 1100.0      -0.7892508385574       8.3234453717080
 1200.0      -0.7855126552731       9.2492973085506
 1300.0      -0.7817653049547      10.1774735462122
 1400.0      -0.7780106331357      11.1074877512530
 1500.0      -0.7742500718337      12.0389848829504
 1600.0      -0.7704847269228      12.9716965906849
 1700.0      -0.7667154477402      13.9054145764953
 1800.0      -0.7629429417545      14.8399731525335
 1900.0      -0.7591675939956      15.7752397685207
 2000.0      -0.7553899311565      16.7111175758677
 2100.0      -0.7516102908089      17.6475100526243
 2200.0      -0.7478287789973      18.5843554802713
 2300.0      -0.7440458518570      19.5215958639787
 2400.0      -0.7402615057625      20.4591772102497
 2500.0      -0.7364760755227      21.3970659405514
 2600.0      -0.7326896445897      22.3352138592367
 2700.0      -0.7289021597036      23.2736019558910
 2800.0      -0.7251140658963      24.2121983831704
 2900.0      -0.7213250479749      25.1509772875645
 3000.0      -0.7175354077480      26.0899309440509
 3100.0      -0.7137453505224      27.0290275379495
 3200.0      -0.7099548195001      27.9682535953842
 3300.0      -0.7061635982763      28.9075865129066
 3400.0      -0.7023717164512      29.8470405809917
 3500.0      -0.6985799374001      30.7865908770514
 3600.0      -0.6947872666204      31.7262200565321
 3700.0      -0.6909946770515      32.6659459212826
 3800.0      -0.6872017763722      33.6057152617405
 3900.0      -0.6834082073267      34.5455658210914
 4000.0      -0.6796149593312      35.4854616689986
 4100.0      -0.6758210442612      36.4254044059951
 4200.0      -0.6720268243198      37.3653969391720
 4300.0      -0.6682330303095      38.3054283097765
 4400.0      -0.6644386147706      39.2454737258762
 4500.0      -0.6606439168719      40.1855646428478
 4600.0      -0.6568494166221      41.1256676128142
 4700.0      -0.6530539760755      42.0658019238334
 4800.0      -0.6492591414067      43.0059654527492
 4900.0      -0.6454641747740      43.9461302228948
 5000.0      -0.6416686588992      44.8863152283527
 5100.0      -0.6378735384120      45.8265058030128
 5200.0      -0.6340780208663      46.7666991704400
 5300.0      -0.6302822480064      47.7068993972951
 5400.0      -0.6264865169712      48.6471083780868
 5500.0      -0.6226909616369      49.5873147620951
 5600.0      -0.6188954155441      50.5275106936418
 5700.0      -0.6150989972139      51.4677035547779
 5800.0      -0.6113031910571      52.4079040592765
 5900.0      -0.6075075626100      53.3480795921911
 6000.0      -0.6037107939873      54.2882550597778
# V = 126.919873 (a.u.^3)
    0.0      -0.8230887464833       2.4751344289479
  100.0      -0.8225704118380       2.5565167232927
  200.0      -0.8207282895102       2.9766931037166
  300.0      -0.8178508098182       3.6344762129599
  400.0      -0.8146484503610       4.4139847539112
  500.0      -0.8112122569699       5.2540706666809
  600.0      -0.8076733360986       6.1263840336657
  700.0      -0.8040620243818       7.0174074538898
  800.0      -0.8004069243480       7.9201940907228
  900.0      -0.7967207491139       8.8308597277767
 1000.0      -0.7930127917853       9.7470701017303
 1100.0      -0.7892886046582      10.6673325847360
 1200.0      -0.7855521522734      11.5906659682939
 1300.0      -0.7818062718623      12.5163719136456
