# T (K)     Gibbs free energy (Ry.)
# P= 0.000000 GPa
    0.0      -0.8231615740899
  100.0      -0.8233531470711
  200.0      -0.8246762242052
  300.0      -0.8272578030521
  400.0      -0.8308899239989
  500.0      -0.8353861492208
  600.0      -0.8406072694177
  700.0      -0.8464503176821
  800.0      -0.8528374223053
  900.0      -0.8597081089026
 1000.0      -0.8670142682069
 1100.0      -0.8747168299426
 1200.0      -0.8827835170343
 1300.0      -0.8911872272592
 1400.0      -0.8999049266637
 1500.0      -0.9089168199775
 1600.0      -0.9182057252454
 1700.0      -0.9277566011970
 1800.0      -0.9375561808963
 1900.0      -0.9475926862689
 2000.0      -0.9578556120666
 2100.0      -0.9683355079080
 2200.0      -0.9790238725745
 2300.0      -0.9899129980572
 2400.0      -1.0009958705063
 2500.0      -1.0122661066162
 2600.0      -1.0237178375018
 2700.0      -1.0353457080742
 2800.0      -1.0471447683979
 2900.0      -1.0591104546015
 3000.0      -1.0712385710250
 3100.0      -1.0835251923351
 3200.0      -1.0959666984001
 3300.0      -1.1085597097029
 3400.0      -1.1213011316520
 3500.0      -1.1341880220424
 3600.0      -1.1472176408087
 3700.0      -1.1603874872061
 3800.0      -1.1736950995079
 3900.0      -1.1871383273726
 4000.0      -1.2007150284029
 4100.0      -1.2144232575189
 4200.0      -1.2282611950567
 4300.0      -1.2422271051750
 4400.0      -1.2563193272535
 4500.0      -1.2705364162060
 4600.0      -1.2848768821439
 4700.0      -1.2993394339165
 4800.0      -1.3139228183299
 4900.0      -1.3286257926767
 5000.0      -1.3434473000314
 5100.0      -1.3583862693905
 5200.0      -1.3734417206331
 5300.0      -1.3886127550563
 5400.0      -1.4038985224403
 5500.0      -1.4192981957019
 5600.0      -1.4348110039762
 5700.0      -1.4504362700260
 5800.0      -1.4661733755731
 5900.0      -1.4820216164707
 6000.0      -1.4979805044125
# P= 1.000000 GPa
    0.0      -0.8144866908448
  100.0      -0.8146762865904
  200.0      -0.8159891213561
  300.0      -0.8185545330435
  400.0      -0.8221672883869
  500.0      -0.8266423977961
  600.0      -0.8318413198690
  700.0      -0.8376614033494
  800.0      -0.8440249368766
  900.0      -0.8508715284806
 1000.0      -0.8581531189220
 1100.0      -0.8658306601949
 1200.0      -0.8738718901034
 1300.0      -0.8822497202098
 1400.0      -0.8909411256516
 1500.0      -0.8999263170874
 1600.0      -0.9091881164179
 1700.0      -0.9187114848118
 1800.0      -0.9284831567704
 1900.0      -0.9384913548699
 2000.0      -0.9487255735551
 2100.0      -0.9591763623112
 2200.0      -0.9698352187443
 2300.0      -0.9806944336511
 2400.0      -0.9917469919527
 2500.0      -1.0029865084514
 2600.0      -1.0144071129902
 2700.0      -1.0260034481632
 2800.0      -1.0377705622620
 2900.0      -1.0497038894532
 3000.0      -1.0617992314133
 3100.0      -1.0740526611632
 3200.0      -1.0864605562045
 3300.0      -1.0990195350937
 3400.0      -1.1117264996489
 3500.0      -1.1245785058554
 3600.0      -1.1375728115142
 3700.0      -1.1507069121135
 3800.0      -1.1639783455503
 3900.0      -1.1773849567296
 4000.0      -1.1909246020871
 4100.0      -1.2045953335487
 4200.0      -1.2183953283651
 4300.0      -1.2323228483103
 4400.0      -1.2463762311711
 4500.0      -1.2605540271997
 4600.0      -1.2748547454021
 4700.0      -1.2892770905685
 4800.0      -1.3038198066445
 4900.0      -1.3184816495164
 5000.0      -1.3332615581945
 5100.0      -1.3481584595449
 5200.0      -1.3631713705907
 5300.0      -1.3782993894104
 5400.0      -1.3935416625401
 5500.0      -1.4088973606389
 5600.0      -1.4243657102749
 5700.0      -1.4399460306906
 5800.0      -1.4556376997896
 5900.0      -1.4714400125446
 6000.0      -1.4873524758443
# P= 2.000000 GPa
    0.0      -0.8058357624336
  100.0      -0.8060234110922
  200.0      -0.8073261535782
  300.0      -0.8098756292059
  400.0      -0.8134692907848
  500.0      -0.8179235732765
  600.0      -0.8231005998266
  700.0      -0.8288980313981
  800.0      -0.8352383128612
  900.0      -0.8420611391983
 1000.0      -0.8493184960566
 1100.0      -0.8569713651361
 1200.0      -0.8649874946629
 1300.0      -0.8733398035432
 1400.0      -0.8820052758164
 1500.0      -0.8909641280300
 1600.0      -0.9001991859131
 1700.0      -0.9096954130524
 1800.0      -0.9194395453707
 1900.0      -0.9294198060832
 2000.0      -0.9396256893256
 2100.0      -0.9500477444386
 2200.0      -0.9606774678562
 2300.0      -0.9715071491809
 2400.0      -0.9825297721017
 2500.0      -0.9937389495359
 2600.0      -1.0051288100486
 2700.0      -1.0166939939278
 2800.0      -1.0284295476919
 2900.0      -1.0403309035478
 3000.0      -1.0523938605215
 3100.0      -1.0646144899831
 3200.0      -1.0769891670737
 3300.0      -1.0895145084209
 3400.0      -1.1021874122804
 3500.0      -1.1150049328216
 3600.0      -1.1279643257127
 3700.0      -1.1410630827024
 3800.0      -1.1542987412800
 3900.0      -1.1676691416410
 4000.0      -1.1811721390361
 4100.0      -1.1948057824101
 4200.0      -1.2085682459418
 4300.0      -1.2224577890225
 4400.0      -1.2364727478340
 4500.0      -1.2506116680073
 4600.0      -1.2648730574211
 4700.0      -1.2792556168371
 4800.0      -1.2937580873453
 4900.0      -1.3083792234141
 5000.0      -1.3231179600144
 5100.0      -1.3379732218767
 5200.0      -1.3529440231779
 5300.0      -1.3680294587897
 5400.0      -1.3832286720163
 5500.0      -1.3985408312557
 5600.0      -1.4139651605132
 5700.0      -1.4295009755241
 5800.0      -1.4451476503988
 5900.0      -1.4609044792015
 6000.0      -1.4767709640513
# P= 3.000000 GPa
    0.0      -0.7972085132167
  100.0      -0.7973942445982
  200.0      -0.7986870433391
  300.0      -0.8012208088570
  400.0      -0.8047956400808
  500.0      -0.8092293809627
  600.0      -0.8143848069829
  700.0      -0.8201598914559
  800.0      -0.8264772355969
  900.0      -0.8332766166303
 1000.0      -0.8405100703789
 1100.0      -0.8481386033247
 1200.0      -0.8561299808787
 1300.0      -0.8644571262952
 1400.0      -0.8730970252938
 1500.0      -0.8820299000474
 1600.0      -0.8912385800839
 1700.0      -0.9007080313861
 1800.0      -0.9104249912810
 1900.0      -0.9203776836104
 2000.0      -0.9305556021983
 2100.0      -0.9409492962292
 2200.0      -0.9515502609676
 2300.0      -0.9623507848218
 2400.0      -0.9733438502452
 2500.0      -0.9845230682774
 2600.0      -0.9958825661988
 2700.0      -1.0074169820024
 2800.0      -1.0191213604329
 2900.0      -1.0309911317394
 3000.0      -1.0430220923112
 3100.0      -1.0552103118612
 3200.0      -1.0675521631772
 3300.0      -1.0800442609548
 3400.0      -1.0926834999154
 3500.0      -1.1054669324063
 3600.0      -1.1183918119631
 3700.0      -1.1314556266234
 3800.0      -1.1446559134363
 3900.0      -1.1579905079331
 4000.0      -1.1714572641606
 4100.0      -1.1850542280952
 4200.0      -1.1987795708579
 4300.0      -1.2126315494592
 4400.0      -1.2266084984642
 4500.0      -1.2407089589219
 4600.0      -1.2549314375633
 4700.0      -1.2692746311500
 4800.0      -1.2837372779249
 4900.0      -1.2983181309222
 5000.0      -1.3130161211014
 5100.0      -1.3278301710529
 5200.0      -1.3427592921147
 5300.0      -1.3578025759633
 5400.0      -1.3729591626865
 5500.0      -1.3882282184157
 5600.0      -1.4036089645957
 5700.0      -1.4191007134724
 5800.0      -1.4347028353813
 5900.0      -1.4504146234546
 6000.0      -1.4662355750791
# P= 4.000000 GPa
    0.0      -0.7886046740335
  100.0      -0.7887885169515
  200.0      -0.7900715159544
  300.0      -0.7925897938746
  400.0      -0.7961460543052
  500.0      -0.8005595297898
  600.0      -0.8056936459207
  700.0      -0.8114466814017
  800.0      -0.8177413941101
  900.0      -0.8245176458165
 1000.0      -0.8317275171827
 1100.0      -0.8393320450086
 1200.0      -0.8472990074114
 1300.0      -0.8556013378481
 1400.0      -0.8642160222193
 1500.0      -0.8731232803816
 1600.0      -0.8823059452833
 1700.0      -0.8917489852801
 1800.0      -0.9014391390852
 1900.0      -0.9113646311532
 2000.0      -0.9215149549936
 2100.0      -0.9318806596219
 2200.0      -0.9424532391361
 2300.0      -0.9532249807488
 2400.0      -0.9641888656751
 2500.0      -0.9753385030834
 2600.0      -0.9866680189624
 2700.0      -0.9981720490213
 2800.0      -1.0098456362302
 2900.0      -1.0216842088826
 3000.0      -1.0336835607437
 3100.0      -1.0458397598642
 3200.0      -1.0581491766845
 3300.0      -1.0706084239660
 3400.0      -1.0832143929227
 3500.0      -1.0959641340746
 3600.0      -1.1088548988247
 3700.0      -1.1218841715269
 3800.0      -1.1350494887592
 3900.0      -1.1483486814324
 4000.0      -1.1617796023709
 4100.0      -1.1753402945964
 4200.0      -1.1890289261849
 4300.0      -1.2028437517686
 4400.0      -1.2167831042836
 4500.0      -1.2308455202371
 4600.0      -1.2450295051910
 4700.0      -1.2593337519362
 4800.0      -1.2737569958750
 4900.0      -1.2882979885942
 5000.0      -1.3029556570672
 5100.0      -1.3177289217405
 5200.0      -1.3326167911213
 5300.0      -1.3476183537022
 5400.0      -1.3627327463679
 5500.0      -1.3779591329809
 5600.0      -1.3932967324269
 5700.0      -1.4087448534789
 5800.0      -1.4243028627181
 5900.0      -1.4399700523208
 6000.0      -1.4557459149740
# P= 5.000000 GPa
    0.0      -0.7800239817946
  100.0      -0.7802059647276
  200.0      -0.7814793055036
  300.0      -0.7839823113591
  400.0      -0.7875202545786
  500.0      -0.7919137377563
  600.0      -0.7970268256910
  700.0      -0.8027581050917
  800.0      -0.8090304863706
  900.0      -0.8157839152712
 1000.0      -0.8229705211227
 1100.0      -0.8305513652556
 1200.0      -0.8384942439418
 1300.0      -0.8467720969675
 1400.0      -0.8553619152368
 1500.0      -0.8642439162745
 1600.0      -0.8734009278643
 1700.0      -0.8828179202018
 1800.0      -0.8924816333671
 1900.0      -0.9023802924133
 2000.0      -0.9125033905317
 2100.0      -0.9228414765558
 2200.0      -0.9333860434189
 2300.0      -0.9441293771372
 2400.0      -0.9550644576835
 2500.0      -0.9661848923613
 2600.0      -0.9774848058613
 2700.0      -0.9889588316188
 2800.0      -1.0006020108293
 2900.0      -1.0124097698316
 3000.0      -1.0243778997806
 3100.0      -1.0365024670586
 3200.0      -1.0487798397651
 3300.0      -1.0612066287248
 3400.0      -1.0737797216715
 3500.0      -1.0864961672920
 3600.0      -1.0993532148566
 3700.0      -1.1123483450637
 3800.0      -1.1254790939883
 3900.0      -1.1387432879649
 4000.0      -1.1521387785777
 4100.0      -1.1656636059054
 4200.0      -1.1793159349938
 4300.0      -1.1930940180980
 4400.0      -1.2069961865146
 4500.0      -1.2210209722460
 4600.0      -1.2351668796667
 4700.0      -1.2494325976237
 4800.0      -1.2638168586882
 4900.0      -1.2783184129831
 5000.0      -1.2929361835232
 5100.0      -1.3076690886076
 5200.0      -1.3225161339173
 5300.0      -1.3374764047757
 5400.0      -1.3525490348782
 5500.0      -1.3677331858139
 5600.0      -1.3830280739124
 5700.0      -1.3984330044890
 5800.0      -1.4139473403897
 5900.0      -1.4295703728142
 6000.0      -1.4453015897826
# P= 6.000000 GPa
    0.0      -0.7714661762792
  100.0      -0.7716463269715
  200.0      -0.7729101485260
  300.0      -0.7753980957803
  400.0      -0.7789179690720
  500.0      -0.7832917254217
  600.0      -0.7883840639368
  700.0      -0.7940938717045
  800.0      -0.8003442155359
  900.0      -0.8070751229716
 1000.0      -0.8142387702857
 1100.0      -0.8217962482675
 1200.0      -0.8297153653522
 1300.0      -0.8379690727348
 1400.0      -0.8465343632103
 1500.0      -0.8553914556768
 1600.0      -0.8645231741799
 1700.0      -0.8739144816185
 1800.0      -0.8835521187104
 1900.0      -0.8934243110924
 2000.0      -0.9035205516327
 2100.0      -0.9138313889697
 2200.0      -0.9243483148736
 2300.0      -0.9350636141620
 2400.0      -0.9459702655623
 2500.0      -0.9570618745187
 2600.0      -0.9683325644173
 2700.0      -0.9797769664295
 2800.0      -0.9913901199753
 2900.0      -1.0031674494409
 3000.0      -1.0151047433833
 3100.0      -1.0271980665108
 3200.0      -1.0394437845886
 3300.0      -1.0518385065016
 3400.0      -1.0643791165306
 3500.0      -1.0770626615233
 3600.0      -1.0898863886181
 3700.0      -1.1028477748841
 3800.0      -1.1159443558634
 3900.0      -1.1291739533571
 4000.0      -1.1425344176912
 4100.0      -1.1560237860148
 4200.0      -1.1696402203562
 4300.0      -1.1833819705957
 4400.0      -1.1972473663787
 4500.0      -1.2112349352422
 4600.0      -1.2253431803525
 4700.0      -1.2395707866414
 4800.0      -1.2539164838558
 4900.0      -1.2683790206417
 5000.0      -1.2829573160804
 5100.0      -1.2976502863188
 5200.0      -1.3124569342225
 5300.0      -1.3273763419546
 5400.0      -1.3424076400354
 5500.0      -1.3575499877772
 5600.0      -1.3728025989556
 5700.0      -1.3881647754452
 5800.0      -1.4036358763767
 5900.0      -1.4192151919487
 6000.0      -1.4349022055500
# P= 7.000000 GPa
    0.0      -0.7629310055436
  100.0      -0.7631093510917
  200.0      -0.7643637882253
  300.0      -0.7668368838668
  400.0      -0.7703389315940
  500.0      -0.7746932214872
  600.0      -0.7797650808386
  700.0      -0.7854536983840
  800.0      -0.7916822909027
  900.0      -0.7983909714177
 1000.0      -0.8055319625771
 1100.0      -0.8130663817813
 1200.0      -0.8209620553346
 1300.0      -0.8291919398737
 1400.0      -0.8377330346004
 1500.0      -0.8465655575374
 1600.0      -0.8556723315350
 1700.0      -0.8650383149975
 1800.0      -0.8746502396990
 1900.0      -0.8844963308922
 2000.0      -0.8945660811171
 2100.0      -0.9048500388027
 2200.0      -0.9153396945574
 2300.0      -0.9260273319985
 2400.0      -0.9369059286034
 2500.0      -0.9479690879632
 2600.0      -0.9592109321519
 2700.0      -0.9706260900876
 2800.0      -0.9822095994135
 2900.0      -0.9939568825648
 3000.0      -1.0058637255132
 3100.0      -1.0179261912875
 3200.0      -1.0301406433244
 3300.0      -1.0425036885669
 3400.0      -1.0550122078689
 3500.0      -1.0676632462339
 3600.0      -1.0804540486681
 3700.0      -1.0933820886387
 3800.0      -1.1064449011244
 3900.0      -1.1196403034352
 4000.0      -1.1329661446220
 4100.0      -1.1464204589164
 4200.0      -1.1600014053431
 4300.0      -1.1737072314094
 4400.0      -1.1875362650982
 4500.0      -1.2014870295188
 4600.0      -1.2155580266107
 4700.0      -1.2297479374177
 4800.0      -1.2440554888702
 4900.0      -1.2584794281230
 5000.0      -1.2730186703499
 5100.0      -1.2876721295421
 5200.0      -1.3024388057567
 5300.0      -1.3173177780089
 5400.0      -1.3323081736572
 5500.0      -1.3474091497337
 5600.0      -1.3626199174620
 5700.0      -1.3779397752928
 5800.0      -1.3933680786610
 5900.0      -1.4089041167408
 6000.0      -1.4245473683237
# P= 8.000000 GPa
    0.0      -0.7544182196340
  100.0      -0.7545947868192
  200.0      -0.7558399731642
  300.0      -0.7582984207217
  400.0      -0.7617828793405
  500.0      -0.7661179589614
  600.0      -0.7711696053039
  700.0      -0.7768373050741
  800.0      -0.7830444290419
  900.0      -0.7897311700043
 1000.0      -0.7968497998875
 1100.0      -0.8043614635529
 1200.0      -0.8122340013518
 1300.0      -0.8204403815230
 1400.0      -0.8289576039907
 1500.0      -0.8377658896838
 1600.0      -0.8468480589417
 1700.0      -0.8561890670467
 1800.0      -0.8657756409167
 1900.0      -0.8755959955144
 2000.0      -0.8856396218049
 2100.0      -0.8958970679938
 2200.0      -0.9063598235277
 2300.0      -0.9170201708217
 2400.0      -0.9278710860987
 2500.0      -0.9389061711022
 2600.0      -0.9501195465871
 2700.0      -0.9615058392275
 2800.0      -0.9730600848892
 2900.0      -0.9847777040578
 3000.0      -0.9966544801317
 3100.0      -1.0086864744551
 3200.0      -1.0208700481420
 3300.0      -1.0332018061911
 3400.0      -1.0456786260556
 3500.0      -1.0582975508891
 3600.0      -1.0710558235659
 3700.0      -1.0839509139780
 3800.0      -1.0969803565107
 3900.0      -1.1101419640257
 4000.0      -1.1234335842806
 4100.0      -1.1368532486027
 4200.0      -1.1503991130259
 4300.0      -1.1640694226867
 4400.0      -1.1778625038947
 4500.0      -1.1917768753695
 4600.0      -1.2058110378037
 4700.0      -1.2199636683811
 4800.0      -1.2342334912234
 4900.0      -1.2486192519800
 5000.0      -1.2631198619431
 5100.0      -1.2777342329449
 5200.0      -1.2924613622402
 5300.0      -1.3073003257091
 5400.0      -1.3222502475608
 5500.0      -1.3373102825448
 5600.0      -1.3524796393363
 5700.0      -1.3677576129755
 5800.0      -1.3831435552224
 5900.0      -1.3986367542048
 6000.0      -1.4142366841485
# P= 9.000000 GPa
    0.0      -0.7459275748528
  100.0      -0.7461023895618
  200.0      -0.7473384545531
  300.0      -0.7497824541845
  400.0      -0.7532495577008
  500.0      -0.7575656754904
  600.0      -0.7625973696061
  700.0      -0.7682444206747
  800.0      -0.7744303497767
  900.0      -0.7810954346925
 1000.0      -0.7881919916816
 1100.0      -0.7956811949162
 1200.0      -0.8035309009304
 1300.0      -0.8117140849370
 1400.0      -0.8202077539333
 1500.0      -0.8289921265694
 1600.0      -0.8380500235907
 1700.0      -0.8473663968132
 1800.0      -0.8569279685257
 1900.0      -0.8667229486607
 2000.0      -0.8767408165165
 2100.0      -0.8869721184819
 2200.0      -0.8974083428420
 2300.0      -0.9080417708068
 2400.0      -0.9188653773404
 2500.0      -0.9298727623433
 2600.0      -0.9410580452446
 2700.0      -0.9524158504837
 2800.0      -0.9639412121477
 2900.0      -0.9756295487741
 3000.0      -0.9874766412004
 3100.0      -0.9994785490802
 3200.0      -1.0116316312110
 3300.0      -1.0239324906447
 3400.0      -1.0363780014594
 3500.0      -1.0489652049539
 3600.0      -1.0616913418706
 3700.0      -1.0745538785528
 3800.0      -1.0875503487623
 3900.0      -1.1006785609548
 4000.0      -1.1139363615776
 4100.0      -1.1273217790656
 4200.0      -1.1408329664757
 4300.0      -1.1544681665756
 4400.0      -1.1682257039902
 4500.0      -1.1821040930874
 4600.0      -1.1961018332935
 4700.0      -1.2102175979601
 4800.0      -1.2244501084073
 4900.0      -1.2387981087656
 5000.0      -1.2532605064715
 5100.0      -1.2678362111932
 5200.0      -1.2825242173928
 5300.0      -1.2973235978249
 5400.0      -1.3122334735644
 5500.0      -1.3272529970742
 5600.0      -1.3423813744833
 5700.0      -1.3576178974379
 5800.0      -1.3729619140422
 5900.0      -1.3884127113549
 6000.0      -1.4039697590716
# P= 10.000000 GPa
    0.0      -0.7374588327371
  100.0      -0.7376319205785
  200.0      -0.7388589915861
  300.0      -0.7412887373316
  400.0      -0.7447387139142
  500.0      -0.7490361161425
  600.0      -0.7540481117523
  700.0      -0.7596747768244
  800.0      -0.7658397818381
  900.0      -0.7724834852645
 1000.0      -0.7795582532973
 1100.0      -0.7870252853718
 1200.0      -0.7948524549047
 1300.0      -0.8030127473385
 1400.0      -0.8114831715272
 1500.0      -0.8202439501359
 1600.0      -0.8292778998076
 1700.0      -0.8385699708548
 1800.0      -0.8481068815736
 1900.0      -0.8578768360014
 2000.0      -0.8678693080720
 2100.0      -0.8780748322060
 2200.0      -0.8884848935577
 2300.0      -0.8990917721289
 2400.0      -0.9098884416202
 2500.0      -0.9208685000941
 2600.0      -0.9320260656461
 2700.0      -0.9433557604904
 2800.0      -0.9548526169343
 2900.0      -0.9665120515681
 3000.0      -0.9783298426807
 3100.0      -0.9903020482293
 3200.0      -1.0024250247010
 3300.0      -1.0146953731979
 3400.0      -1.0271099644494
 3500.0      -1.0396658378936
 3600.0      -1.0523602321414
 3700.0      -1.0651906100134
 3800.0      -1.0781545046188
 3900.0      -1.0912497200487
 4000.0      -1.1044741014233
 4100.0      -1.1178256742975
 4200.0      -1.1313025887641
 4300.0      -1.1449030852239
 4400.0      -1.1586254866070
 4500.0      -1.1724683029660
 4600.0      -1.1864300324428
 4700.0      -1.2005093445834
