# T (K)     Thermal pressure (GPa)
# V= 131.9300000000000
    0.0       0.0000000000000
  100.0       0.0856667583517
  200.0       0.5243335923297
  300.0       1.2063097568608
  400.0       2.0095802870509
  500.0       2.8712570494668
  600.0       3.7630913030671
  700.0       4.6720394373615
  800.0       5.5915852081414
  900.0       6.5181633787492
 1000.0       7.4496642994639
 1100.0       8.3847522600178
 1200.0       9.3225586281885
 1300.0      10.2624642262825
 1400.0      11.2040308021834
 1500.0      12.1469393598291
 1600.0      13.0909487576643
 1700.0      14.0358712760114
 1800.0      14.9815571343622
 1900.0      15.9278861784044
 2000.0      16.8747721589978
 2100.0      17.8221256912639
 2200.0      18.7698922917465
 2300.0      19.7180193061705
 2400.0      20.6664567750357
 2500.0      21.6151753824539
 2600.0      22.5641288762824
 2700.0      23.5133018228084
 2800.0      24.4626639588893
 2900.0      25.4121909498879
 3000.0      26.3618777982209
 3100.0      27.3116927218724
 3200.0      28.2616234065361
 3300.0      29.2116473630875
 3400.0      30.1617824587032
 3500.0      31.1120029052006
 3600.0      32.0622914070221
 3700.0      33.0126688037631
 3800.0      33.9630780478480
 3900.0      34.9135614880783
 4000.0      35.8640808096493
 4100.0      36.8146386910045
 4200.0      37.7652390191529
 4300.0      38.7158705250344
 4400.0      39.6665066201998
 4500.0      40.6171824673832
 4600.0      41.5678618586044
 4700.0      42.5185664337252
 4800.0      43.4692942002452
 4900.0      44.4200151400012
 5000.0      45.3707502069123
 5100.0      46.3214836732903
 5200.0      47.2722129423516
 5300.0      48.2229424400606
 5400.0      49.1736748938563
 5500.0      50.1243977281210
 5600.0      51.0751028585288
 5700.0      52.0257983694056
 5800.0      52.9764961994223
 5900.0      53.9271608428735
 6000.0      54.8778197701347
# V= 131.0949787878788
    0.0       0.0000000000000
  100.0       0.0849846045770
  200.0       0.5207070617841
  300.0       1.1988318045255
  400.0       1.9983209117548
  500.0       2.8565621623607
  600.0       3.7452898300517
  700.0       4.6513844586632
  800.0       5.5682611607114
  900.0       6.4923040050999
 1000.0       7.4213677547425
 1100.0       8.3540918584431
 1200.0       9.2895898331350
 1300.0      10.2272300398303
 1400.0      11.1665650478451
 1500.0      12.1072688383695
 1600.0      13.0490952232689
 1700.0      13.9918524815330
 1800.0      14.9353877785751
 1900.0      15.8795786409426
 2000.0      16.8243367779992
 2100.0      17.7695714493126
 2200.0      18.7152268158732
 2300.0      19.6612491781594
 2400.0      20.6075877600728
 2500.0      21.5542125924461
 2600.0      22.5010768841817
 2700.0      23.4481646462798
 2800.0      24.3954452236304
 2900.0      25.3428940856125
 3000.0      26.2905056466922
 3100.0      27.2382480758574
 3200.0      28.1861089444780
 3300.0      29.1340657470977
 3400.0      30.0821355996223
 3500.0      31.0302928771890
 3600.0      31.9785203822320
 3700.0      32.9268382357399
 3800.0      33.8751902067356
 3900.0      34.8236177130984
 4000.0      35.7720830279746
 4100.0      36.7205884215082
 4200.0      37.6691377480445
 4300.0      38.6177197711871
 4400.0      39.5663081964625
 4500.0      40.5149375659898
 4600.0      41.4635720964200
 4700.0      42.4122330356477
 4800.0      43.3609183421765
 4900.0      44.3095984714704
 5000.0      45.2582938548255
 5100.0      46.2069891075247
 5200.0      47.1556815347930
 5300.0      48.1043754972665
 5400.0      49.0530735590648
 5500.0      50.0017634222136
 5600.0      50.9504369370592
 5700.0      51.8991022205912
 5800.0      52.8477708521773
 5900.0      53.7964079140631
 6000.0      54.7450404356608
# V= 130.2599575757576
    0.0       0.0000000000000
  100.0       0.0842899405123
  200.0       0.5170145664066
  300.0       1.1912175618903
  400.0       1.9868556392973
  500.0       2.8415980100448
  600.0       3.7271619462591
  700.0       4.6303509375355
  800.0       5.5445102118851
  900.0       6.4659722455144
 1000.0       7.3925554790333
 1100.0       8.3228739813622
 1200.0       9.2560230919505
 1300.0      10.1913584165407
 1400.0      11.1284230029098
 1500.0      12.0668840218156
 1600.0      13.0064897975816
 1700.0      13.9470446241963
 1800.0      14.8883926129942
 1900.0      15.8304087590674
 2000.0      16.7730028119430
 2100.0      17.7160825613112
 2200.0      18.6595908126089
 2300.0      19.6034727884044
 2400.0      20.5476769613285
 2500.0      21.4921724966195
 2600.0      22.4369122438765
 2700.0      23.3818795281568
 2800.0      24.3270433677109
 2900.0      25.2723789052787
 3000.0      26.2178801306947
 3100.0      27.1635150986232
 3200.0      28.1092712171143
 3300.0      29.0551259153838
 3400.0      30.0010955743989
 3500.0      30.9471548796041
 3600.0      31.8932864864460
 3700.0      32.8395100259540
 3800.0      33.7857699694258
 3900.0      34.7321068364823
 4000.0      35.6784832922370
 4100.0      36.6249015905020
 4200.0      37.5713651936552
 4300.0      38.5178630286202
 4400.0      39.4643691602265
 4500.0      40.4109173466588
 4600.0      41.3574724088510
 4700.0      42.3040550557426
 4800.0      43.2506633601610
 4900.0      44.1972679898859
 5000.0      45.1438891638976
 5100.0      46.0905115791392
 5200.0      47.0371325571673
 5300.0      47.9837564096223
 5400.0      48.9303855373040
 5500.0      49.8770078218898
 5600.0      50.8236152770457
 5700.0      51.7702157257860
 5800.0      52.7168205841585
 5900.0      53.6633955713556
 6000.0      54.6099670635108
# V= 129.4249363636364
    0.0       0.0000000000000
  100.0       0.0835827171617
  200.0       0.5132549302954
  300.0       1.1834643831758
  400.0       1.9751803703536
  500.0       2.8263591213087
  600.0       3.7087009555812
  700.0       4.6089311162921
  800.0       5.5203236567219
  900.0       6.4391585621217
 1000.0       7.3632170198747
 1100.0       8.2910873597149
 1200.0       9.2218463353082
 1300.0      10.1548365194843
 1400.0      11.0895913731528
 1500.0      12.0257707993446
 1600.0      12.9631177328324
 1700.0      13.9014323029522
 1800.0      14.8405554853000
 1900.0      15.7803597925083
 2000.0      16.7207528346159
 2100.0      17.6616410620914
 2200.0      18.6029656471745
 2300.0      19.5446709468392
 2400.0      20.4867045027938
 2500.0      21.4290346473461
 2600.0      22.3716138871238
 2700.0      23.3144248122454
 2800.0      24.2574361143222
 2900.0      25.2006226421184
 3000.0      26.1439777648537
 3100.0      27.0874697331760
 3200.0      28.0310854815084
 3300.0      28.9748025533903
 3400.0      29.9186366438461
 3500.0      30.8625625036484
 3600.0      31.8065628209075
 3700.0      32.7506566876979
 3800.0      33.6947891796002
 3900.0      34.6390000812965
 4000.0      35.5832524498677
 4100.0      36.5275482778144
 4200.0      37.4718909458547
 4300.0      38.4162693155840
 4400.0      39.3606578927954
 4500.0      40.3050896517387
 4600.0      41.2495300176309
 4700.0      42.1939992094523
 4800.0      43.1384952183705
 4900.0      44.0829892184563
 5000.0      45.0275009550628
 5100.0      45.9720153701125
 5200.0      46.9165297524984
 5300.0      47.8610483485328
 5400.0      48.8055733956959
 5500.0      49.7500929553166
 5600.0      50.6945991227209
 5700.0      51.6390996229312
 5800.0      52.5836056596797
 5900.0      53.5280833604581
 6000.0      54.4725587747606
# V= 128.5899151515152
    0.0       0.0000000000000
  100.0       0.0828624445662
  200.0       0.5094266019131
  300.0       1.1755692143033
  400.0       1.9632905972996
  500.0       2.8108396819706
  600.0       3.6898998679341
  700.0       4.5871169106072
  800.0       5.4956924799738
  900.0       6.4118528290994
 1000.0       7.3333414675099
 1100.0       8.2587203324736
 1200.0       9.1870471672420
 1300.0      10.1176512340880
 1400.0      11.0500562110707
 1500.0      11.9839145538420
 1600.0      12.9189636933002
 1700.0      13.8549995124689
 1800.0      14.7918598185417
 1900.0      15.7294145110356
 2000.0      16.6675690441692
 2100.0      17.6062283168740
 2200.0      18.5453322438277
 2300.0      19.4848238264508
 2400.0      20.4246500021686
 2500.0      21.3647780743748
 2600.0      22.3051602557215
 2700.0      23.2457783033968
 2800.0      24.1866006640324
 2900.0      25.1276018434210
 3000.0      26.0687747044913
 3100.0      27.0100873509034
 3200.0      27.9515266354205
 3300.0      28.8930699709264
 3400.0      29.8347323828346
 3500.0      30.7764887689053
 3600.0      31.7183217845851
 3700.0      32.6602499666613
 3800.0      33.6022191583172
 3900.0      34.5442681316527
 4000.0      35.4863604663718
 4100.0      36.4284980243192
 4200.0      37.3706838269097
 4300.0      38.3129068990586
 4400.0      39.2551421058621
 4500.0      40.1974216539675
 4600.0      41.1397115238787
 4700.0      42.0820314609490
 4800.0      43.0243794236819
 4900.0      43.9667269944476
 5000.0      44.9090935429638
 5100.0      45.8514641908047
 5200.0      46.7938362268633
 5300.0      47.7362137994601
 5400.0      48.6785989990874
 5500.0      49.6209801157220
 5600.0      50.5633493590134
 5700.0      51.5057141926727
 5800.0      52.4480855917843
 5900.0      53.3904303534509
 6000.0      54.3327739555475
# V= 127.7548939393940
    0.0       0.0000000000000
  100.0       0.0821291553895
  200.0       0.5055283890259
  300.0       1.1675293768295
  400.0       1.9511821391508
  500.0       2.7950340411686
  600.0       3.6707518565540
  700.0       4.5649003178149
  800.0       5.4706076173965
  900.0       6.3840452146010
 1000.0       7.3029181244978
 1100.0       8.2257612712750
 1200.0       9.1516132081176
 1300.0      10.0797894457791
 1400.0      11.0098036508200
 1500.0      11.9413007825174
 1600.0      12.8740124902519
 1700.0      13.8077304760623
 1800.0      14.7422890521004
 1900.0      15.6775556680877
 2000.0      16.6134334754347
 2100.0      17.5498259521913
 2200.0      18.4866713798383
 2300.0      19.4239117635457
 2400.0      20.3614931098167
 2500.0      21.2993818401184
 2600.0      22.2375297588037
 2700.0      23.1759178554580
 2800.0      24.1145142827374
 2900.0      25.0532931871315
 3000.0      25.9922468436179
 3100.0      26.9313434375165
 3200.0      27.8705694949511
 3300.0      28.8099024124736
 3400.0      29.7493564805587
 3500.0      30.6889067766184
 3600.0      31.6285359560991
 3700.0      32.5682618208496
 3800.0      33.5080311613075
 3900.0      34.4478817206584
 4000.0      35.3877775685655
 4100.0      36.3277203055621
 4200.0      37.2677128387390
 4300.0      38.2077442093435
 4400.0      39.1477896254432
 4500.0      40.0878805424148
 4600.0      41.0279835123812
 4700.0      41.9681178234004
 4800.0      42.9082813523162
 4900.0      43.8484461224617
 5000.0      44.7886311279197
 5100.0      45.7288217025798
 5200.0      46.6690150700070
 5300.0      47.6092152968621
 5400.0      48.5494242776538
 5500.0      49.4896306616621
 5600.0      50.4298265932088
 5700.0      51.3700194543449
 5800.0      52.3102199588435
 5900.0      53.2503954917581
 6000.0      54.1905709593448
# V= 126.9198727272727
    0.0       0.0000000000000
  100.0       0.0813822943447
  200.0       0.5015586747686
  300.0       1.1593417840120
  400.0       1.9388503249633
  500.0       2.7789362377330
  600.0       3.6512496047178
  700.0       4.5422730249419
  800.0       5.4450596617748
  900.0       6.3557252988287
 1000.0       7.2719356727823
 1100.0       8.1921981557881
 1200.0       9.1155315393459
 1300.0      10.0412374846977
 1400.0      10.9688193202659
 1500.0      11.8979143129695
 1600.0      12.8282483470031
 1700.0      13.7596086004496
 1800.0      14.6918260864024
 1900.0      15.6247655598078
 2000.0      16.5583278529364
 2100.0      17.4924149249649
 2200.0      18.4269635548325
 2300.0      19.3619144738157
 2400.0      20.2972129208150
 2500.0      21.2328243863750
 2600.0      22.1687002012214
 2700.0      23.1048207016610
 2800.0      24.0411535993865
 2900.0      24.9776726489203
 3000.0      25.9143697006085
 3100.0      26.8512128254475
 3200.0      27.7881882882495
 3300.0      28.7252734365703
 3400.0      29.6624819729339
 3500.0      30.5997889257561
 3600.0      31.5371770484753
 3700.0      32.4746635223254
 3800.0      33.4121959216786
 3900.0      34.3498109118104
 4000.0      35.2874731829989
 4100.0      36.2251840744658
 4200.0      37.1629462973182
 4300.0      38.1007489581315
 4400.0      39.0385675426167
 4500.0      39.9764328855356
 4600.0      40.9143119473103
 4700.0      41.8522236403636
 4800.0      42.7901658088752
 4900.0      43.7281108518137
 5000.0      44.6660773549624
 5100.0      45.6040508808588
 5200.0      46.5420286530677
 5300.0      47.4800146239262
 5400.0      48.4180105246231
 5500.0      49.3560052330862
 5600.0      50.2939909752971
 5700.0      51.2319749373231
 5800.0      52.1699677022815
 5900.0      53.1079370308613
 6000.0      54.0459075190110
# V= 126.0848515151515
    0.0       0.0000000000000
  100.0       0.0806218124359
  200.0       0.4975162015795
  300.0       1.1510034960958
  400.0       1.9262907287729
  500.0       2.7625402941625
  600.0       3.6313859426899
  700.0       4.5192266210229
  800.0       5.4190392712211
  900.0       6.3268828089727
 1000.0       7.2403828759672
 1100.0       8.1580189166861
 1200.0       9.0787894056573
 1300.0      10.0019817789755
 1400.0      10.9270888962697
 1500.0      11.8537401687808
 1600.0      12.7816555195337
 1700.0      13.7106175699914
 1800.0      14.6404537892097
 1900.0      15.5710264170111
 2000.0      16.5022336888830
 2100.0      17.4339761431203
 2200.0      18.3661889417974
 2300.0      19.2988116076247
 2400.0      20.2317884975762
 2500.0      21.1650841712744
 2600.0      22.0986495184816
 2700.0      23.0324640589060
 2800.0      23.9664951776010
 2900.0      24.9007162697854
 3000.0      25.8351186631826
 3100.0      26.7696702981330
 3200.0      27.7043572108011
 3300.0      28.6391567814069
 3400.0      29.5740818468796
 3500.0      30.5091076642830
 3600.0      31.4442170033872
 3700.0      32.3794262778235
 3800.0      33.3146839765544
 3900.0      34.2500257686053
 4000.0      35.1854168015495
 4100.0      36.1208581859610
 4200.0      37.0563525022913
 4300.0      37.9918887591237
 4400.0      38.9274429321286
 4500.0      39.8630450558011
 4600.0      40.7986627765060
 4700.0      41.7343142553956
 4800.0      42.6699975163011
 4900.0      43.6056852684988
 5000.0      44.5413957058045
 5100.0      45.4771147010631
 5200.0      46.4128393471838
 5300.0      47.3485735965035
 5400.0      48.2843188862359
 5500.0      49.2200644209478
 5600.0      50.1558024919488
 5700.0      51.0915401056546
 5800.0      52.0272875675391
 5900.0      52.9630133242338
 6000.0      53.8987413347406
# V= 125.2498303030303
    0.0       0.0000000000000
  100.0       0.0798472850319
  200.0       0.4933993362613
  300.0       1.1425115079983
  400.0       1.9134986633039
  500.0       2.7458401676276
  600.0       3.6111533904277
  700.0       4.4957525481050
  800.0       5.3925367445444
  900.0       6.2975070639238
 1000.0       7.2082482526767
 1100.0       8.1232111253391
 1200.0       9.0413735128272
 1300.0       9.9620083484452
 1400.0      10.8845976963893
 1500.0      11.8087629162383
 1600.0      12.7342178391921
 1700.0      13.6607404974296
 1800.0      14.5881547833049
 1900.0      15.5163200132178
 2000.0      16.4451322178394
 2100.0      17.3744902042758
 2200.0      18.3043274687403
 2300.0      19.2345824397011
 2400.0      20.1651985268780
 2500.0      21.0961392283153
 2600.0      22.0273550581401
 2700.0      22.9588247521258
 2800.0      23.8905152706946
 2900.0      24.8223997150899
 3000.0      25.7544686780963
 3100.0      26.6866902307100
 3200.0      27.6190500824561
 3300.0      28.5515255645586
 3400.0      29.4841287300122
 3500.0      30.4168350155323
 3600.0      31.3496271255612
 3700.0      32.2825209021111
 3800.0      33.2154656344112
 3900.0      34.1484958972447
 4000.0      35.0815774424680
 4100.0      36.0147111193434
 4200.0      36.9478992306789
 4300.0      37.8811309320457
 4400.0      38.8143825910813
 4500.0      39.7476833113586
 4600.0      40.6810014251852
 4700.0      41.6143546364180
 4800.0      42.5477407729048
 4900.0      43.4811331482047
 5000.0      44.4145495315022
 5100.0      45.3479758283063
 5200.0      46.2814092458499
 5300.0      47.2148535731502
 5400.0      48.1483102147569
 5500.0      49.0817684895607
 5600.0      50.0152208031950
 5700.0      50.9486739824237
 5800.0      51.8821381204052
 5900.0      52.8155821700620
 6000.0      53.7490296494328
# V= 124.4148090909091
    0.0       0.0000000000000
  100.0       0.0790585324809
  200.0       0.4892067395925
  300.0       1.1338626839810
  400.0       1.9004693922846
  500.0       2.7288296356474
  600.0       3.5905445332162
  700.0       4.4718420685837
  800.0       5.3655423152259
  900.0       6.2675873499088
 1000.0       7.1755201745473
 1100.0       8.0877623531169
 1200.0       9.0032706319588
 1300.0       9.9213031149476
 1400.0      10.8413308258668
 1500.0      11.7629669909735
 1600.0      12.6859191209948
 1700.0      13.6099604791739
 1800.0      14.5349113648313
 1900.0      15.4606281709439
 2000.0      16.3870044620551
 2100.0      17.3139375100659
 2200.0      18.2413590310045
 2300.0      19.1692061957775
 2400.0      20.0974214995143
 2500.0      21.0259674766727
 2600.0      21.9547941840847
 2700.0      22.8838794755974
 2800.0      23.8131899849934
 2900.0      24.7426983725530
 3000.0      25.6723947247696
 3100.0      26.6022469819836
 3200.0      27.5322405924087
 3300.0      28.4623528872688
 3400.0      29.3925951519561
 3500.0      30.3229428558496
 3600.0      31.2533788503797
 3700.0      32.1839181772918
 3800.0      33.1145110077416
 3900.0      34.0451908875982
 4000.0      34.9759241076729
 4100.0      35.9067111905887
 4200.0      36.8375543738257
 4300.0      37.7684427312951
 4400.0      38.6993530226019
 4500.0      39.6303136327121
 4600.0      40.5612934165566
 4700.0      41.4923095717010
 4800.0      42.4233599586571
 4900.0      43.3544182339553
 5000.0      44.2855017094851
 5100.0      45.2165966827227
 5200.0      46.1477001812493
 5300.0      47.0788159614183
 5400.0      48.0099452644594
 5500.0      48.9410775725832
 5600.0      49.8722054547429
 5700.0      50.8033355743826
 5800.0      51.7344776653572
 5900.0      52.6656013828642
 6000.0      53.5967296569911
# V= 123.5797878787879
    0.0       0.0000000000000
  100.0       0.0782551464837
  200.0       0.4849367947080
  300.0       1.1250538066456
  400.0       1.8871981794434
  500.0       2.7115023287530
  600.0       3.5695515643731
  700.0       4.4474862978665
  800.0       5.3380460044313
  900.0       6.2371126591792
 1000.0       7.1421866539120
 1100.0       8.0516597467580
 1200.0       8.9644671095243
 1300.0       9.8798516410202
 1400.0      10.7972732102929
 1500.0      11.7163365346423
 1600.0      12.6367427389950
 1700.0      13.5582602196667
 1800.0      14.4807055522884
 1900.0      15.4039322390782
 2000.0      16.3278312641279
 2100.0      17.2522981681496
 2200.0      18.1772630176424
 2300.0      19.1026616606233
 2400.0      20.0284356939632
 2500.0      20.9545465742098
 2600.0      21.8809438682361
 2700.0      22.8076046132904
 2800.0      23.7344950511882
 2900.0      24.6615874665744
 3000.0      25.5888712599995
 3100.0      26.5163144534639
 3200.0      27.4439020705500
 3300.0      28.3716115404735
 3400.0      29.2994532177042
 3500.0      30.2274028002689
 3600.0      31.1554430906018
 3700.0      32.0835884771697
 3800.0      33.0117898987309
 3900.0      33.9400799702319
 4000.0      34.8684254071155
 4100.0      35.7968265360210
 4200.0      36.7252853331169
 4300.0      37.6537909703063
 4400.0      38.5823205664976
 4500.0      39.5109017063901
 4600.0      40.4395038328656
