# T (K)      Entropy (J K^-1 mol^-1)
# V = 41.164900 (a.u.^3)
    0.0       3.9546058816039
   50.0      42.3509214940331
  100.0      61.6678726148355
  150.0      70.7209565411028
  200.0      77.9817188003940
  250.0      83.4997890615470
  300.0      87.7080267830169
  350.0      91.4950066093242
  400.0      94.8727076483491
  450.0      97.8729227046807
  500.0     100.4272815611928
  550.0     102.5361507987691
  600.0     104.7423965425777
  650.0     106.6952842275149
  700.0     108.4876154176649
  750.0     110.1648038574435
  800.0     111.7368821555812
  850.0     113.0931612404542
  900.0     114.6225673269748
  950.0     115.3066578186674
 1000.0     116.6442038537846
 1050.0     118.6179809498315
 1100.0     119.6097194173624
 1150.0     120.6895051628723
 1200.0     121.5974337662314
 1250.0     122.5234643446167
 1300.0     123.4867161030747
 1350.0     124.4089271576667
 1400.0     125.2967464393356
 1450.0     126.1553087227121
 1500.0     126.9839155066033
 1550.0     127.7859849783727
 1600.0     128.5624797209583
 1650.0     129.3143029469669
 1700.0     130.0439460053619
 1750.0     130.7531543370315
 1800.0     131.4420346289102
 1850.0     132.1112873158194
 1900.0     132.7635127828036
 1950.0     133.3986773097088
 2000.0     134.0180075918790
 2050.0     134.6222104337341
 2100.0     135.2110603697098
 2150.0     135.7853183070876
 2200.0     136.3473975404986
 2250.0     136.8983054864825
 2300.0     137.4346533975594
 2350.0     137.9603850098832
 2400.0     138.4758150633759
 2450.0     138.9797072281992
 2500.0     139.4728185846867
 2550.0     139.9571190681075
 2600.0     140.4329002024563
 2650.0     140.8983615486625
 2700.0     141.3546613897359
 2750.0     141.8039818783521
 2800.0     142.2444519077411
 2850.0     142.6769850343970
 2900.0     143.1016548089414
 2950.0     143.5208872203636
 3000.0     143.9318264240595
 3050.0     144.3343240959275
 3100.0     144.7329234674892
 3150.0     145.1243254701785
 3200.0     145.5084928844454
 3250.0     145.8881848129721
 3300.0     146.2619429056271
 3350.0     146.6290724884586
 3400.0     146.9912076541483
 3450.0     147.3487130303011
 3500.0     147.7003383732044
 3550.0     148.0460977252513
 3600.0     148.3889222472760
 3650.0     148.7264190186367
 3700.0     149.0583228125807
 3750.0     149.3871052291820
 3800.0     149.7110540717275
 3850.0     150.0301458510385
 3900.0     150.3457531623512
 3950.0     150.6573236417109
 4000.0     150.9647938717354
 4050.0     151.2685426279309
 4100.0     151.5685587731239
 4150.0     151.8652057568310
 4200.0     152.1576495533845
 4250.0     152.4470368939328
 4300.0     152.7333151025011
 4350.0     153.0156435089414
 4400.0     153.2951388000149
 4450.0     153.5716419007863
 4500.0     153.8444616828792
 4550.0     154.1144858175192
 4600.0     154.3821611389772
 4650.0     154.6465784016863
 4700.0     154.9072825516162
 4750.0     155.1665825249953
 4800.0     155.4229952639647
 4850.0     155.6756283765621
 4900.0     155.9267501147739
 4950.0     156.1750735500569
 5000.0     156.4204425102623
# V = 41.098098 (a.u.^3)
    0.0       3.9447651822341
   50.0      42.3457222555945
  100.0      61.6641839520263
  150.0      70.7249060525835
  200.0      77.9845309528190
  250.0      83.4938418338006
  300.0      87.7252657599807
  350.0      91.5046432239263
  400.0      94.8820005903719
  450.0      97.8732738885232
  500.0     100.4233338362117
  550.0     102.5566610450201
  600.0     104.7557751501500
  650.0     106.7125373441871
  700.0     108.5075033137191
  750.0     110.1869455576457
  800.0     111.7597183081656
  850.0     113.1321236337100
  900.0     114.6449824406805
  950.0     115.4150521064319
 1000.0     116.7414198361249
 1050.0     118.6148912059315
 1100.0     119.6242538212359
 1150.0     120.7034909883632
 1200.0     121.6316898443090
 1250.0     122.5671813299821
 1300.0     123.5302388188699
 1350.0     124.4529185322211
 1400.0     125.3412131589460
 1450.0     126.2000811811380
 1500.0     127.0290111329738
 1550.0     127.8313249500551
 1600.0     128.6081111515797
 1650.0     129.3602816899138
 1700.0     130.0902449195804
 1750.0     130.7996629178120
 1800.0     131.4888014627579
 1850.0     132.1583899967894
 1900.0     132.8108411185399
 1950.0     133.4462463275689
 2000.0     134.0657730626216
 2050.0     134.6701567880772
 2100.0     135.2592728311531
 2150.0     135.8338776019970
 2200.0     136.3961822549336
 2250.0     136.9471150800670
 2300.0     137.4838005948657
 2350.0     138.0097534973298
 2400.0     138.5252995466888
 2450.0     139.0294136189848
 2500.0     139.5228136988140
 2550.0     140.0072927710256
 2600.0     140.4831317816465
 2650.0     140.9488069024041
 2700.0     141.4053694741765
 2750.0     141.8547760133009
 2800.0     142.2954328884985
 2850.0     142.7281580842183
 2900.0     143.1530576693050
 2950.0     143.5723013912176
 3000.0     143.9833971117111
 3050.0     144.3862453690585
 3100.0     144.7848787209678
 3150.0     145.1764073405164
 3200.0     145.5608329648456
 3250.0     145.9405951745279
 3300.0     146.3144416137893
 3350.0     146.6817772602066
 3400.0     147.0440593356950
 3450.0     147.4016395974344
 3500.0     147.7534241260433
 3550.0     148.0994459796005
 3600.0     148.4422992392064
 3650.0     148.7798778671721
 3700.0     149.1120098439643
 3750.0     149.4408708413425
 3800.0     149.7649202776123
 3850.0     150.0841947905587
 3900.0     150.3999098136000
 3950.0     150.7115898505448
 4000.0     151.0191905007483
 4050.0     151.3230501132801
 4100.0     151.6231803166039
 4150.0     151.9199137787784
 4200.0     152.2125144241059
 4250.0     152.5020053057621
 4300.0     152.7883602412742
 4350.0     153.0708389729046
 4400.0     153.3504313091224
 4450.0     153.6270135513514
 4500.0     153.8999829870285
 4550.0     154.1701356917308
 4600.0     154.4378589448609
 4650.0     154.7023610648784
 4700.0     154.9632657287458
 4750.0     155.2225954374528
 4800.0     155.4790587104000
 4850.0     155.7318819910353
 4900.0     155.9830591074935
 4950.0     156.2314669760718
 5000.0     156.4769695463354
# V = 41.031296 (a.u.^3)
    0.0       3.9347247420691
   50.0      42.3399100037916
  100.0      61.6598755409517
  150.0      70.7280316218716
  200.0      77.9866343737544
  250.0      83.4876193617157
  300.0      87.7412792384403
  350.0      91.5134033317791
  400.0      94.8904849005671
  450.0      97.8732315423610
  500.0     100.4191869402804
  550.0     102.5759576849954
  600.0     104.7682656536908
  650.0     106.7287630715662
  700.0     108.5262701814618
  750.0     110.2078889134543
  800.0     111.7813415351654
  850.0     113.1692078183232
  900.0     114.6662290581401
  950.0     115.5186802136698
 1000.0     116.8343514499219
 1050.0     118.6117486324431
 1100.0     119.6380021616646
 1150.0     120.7167215331206
 1200.0     121.6643537318335
 1250.0     122.6089180189443
 1300.0     123.5717993167130
 1350.0     124.4949372987644
 1400.0     125.3836962413205
 1450.0     126.2428661367509
 1500.0     127.0721139445076
 1550.0     127.8746700392874
 1600.0     128.6517434225263
 1650.0     129.4042543322791
 1700.0     130.1345317335123
 1750.0     130.8441577745804
 1800.0     131.5335506960457
 1850.0     132.2034678403399
 1900.0     132.8561417903048
 1950.0     133.4917840474692
 2000.0     134.1115052655917
 2050.0     134.7160683918465
 2100.0     135.3054454025161
 2150.0     135.8803882612443
 2200.0     136.4429146291948
 2250.0     136.9938768399209
 2300.0     137.5308913117661
 2350.0     138.0570615499762
 2400.0     138.5727239122020
 2450.0     139.0770557366782
 2500.0     139.5707374710506
 2550.0     140.0553925183416
 2600.0     140.5312917912252
 2650.0     140.9971764723486
 2700.0     141.4539954290603
 2750.0     141.9034889997362
 2800.0     142.3443292510356
 2850.0     142.7772429181529
 2900.0     143.2023670372810
 2950.0     143.6216257689522
 3000.0     144.0328756046258
 3050.0     144.4360639556402
 3100.0     144.8347338143845
 3150.0     145.2263877255805
 3200.0     145.6110646298809
 3250.0     145.9908980309830
 3300.0     146.3648328611342
 3350.0     146.7323697291089
 3400.0     147.0947963259380
 3450.0     147.4524518597557
 3500.0     147.8043924384529
 3550.0     148.1506692832160
 3600.0     148.4935536338592
 3650.0     148.8312140802118
 3700.0     149.1635680397983
 3750.0     149.4925076915034
 3800.0     149.8166567651703
 3850.0     150.1361096072822
 3900.0     150.4519309859263
 3950.0     150.7637191607532
 4000.0     151.0714479133378
 4050.0     151.3754168463144
 4100.0     151.6756593927792
 4150.0     151.9724785874416
 4200.0     152.2652325381472
 4250.0     152.5548256344966
 4300.0     152.8412568883037
 4350.0     153.1238825305108
 4400.0     153.4035707415634
 4450.0     153.6802316076390
 4500.0     153.9533472190324
 4550.0     154.2236257100723
 4600.0     154.4913975869448
 4650.0     154.7559838141480
 4700.0     155.0170832150019
 4750.0     155.2764440481636
 4800.0     155.5329583481319
 4850.0     155.7859663764521
 4900.0     156.0371990638224
 4950.0     156.2856903391774
 5000.0     156.5313234923848
# V = 40.964494 (a.u.^3)
    0.0       3.9244827613646
   50.0      42.3334837344398
  100.0      61.6549454343240
  150.0      70.7303333976995
  200.0      77.9880278324317
  250.0      83.4811158120950
  300.0      87.7560711854201
  350.0      91.5212871846136
  400.0      94.8981600809027
  450.0      97.8727907919537
  500.0     100.4148339159695
  550.0     102.5940442886077
  600.0     104.7798681934717
  650.0     106.7439629709425
  700.0     108.5439185258746
  750.0     110.2276372064604
  800.0     111.8017552427202
  850.0     113.2044241080579
  900.0     114.6863100787680
  950.0     115.6175824887810
 1000.0     116.9230339977894
 1050.0     118.6085444382125
 1100.0     119.6509632654153
 1150.0     120.7291952804072
 1200.0     121.6954326110400
 1250.0     122.6486856157022
 1300.0     123.6114085949739
 1350.0     124.5349945467740
 1400.0     125.4242068729317
 1450.0     126.2836748006453
 1500.0     127.1132351926095
 1550.0     127.9160315034754
 1600.0     128.6933878208872
 1650.0     129.4462322192763
 1700.0     130.1768178409783
 1750.0     130.8866503049689
 1800.0     131.5762937544238
 1850.0     132.2465323341993
 1900.0     132.8994263028948
 1950.0     133.5353020001033
 2000.0     134.1552157405566
 2050.0     134.7599567893447
 2100.0     135.3495896701286
 2150.0     135.9248619513712
 2200.0     136.4876063577051
 2250.0     137.0386024034198
 2300.0     137.5759372649884
 2350.0     138.1023209163263
 2400.0     138.6180998958039
 2450.0     139.1226453506271
 2500.0     139.6166017345116
 2550.0     140.1014301618265
 2600.0     140.5773920495446
 2650.0     141.0434821118077
 2700.0     141.5005511645016
 2750.0     141.9501327289991
 2800.0     142.3911529156787
 2850.0     142.8242514851396
 2900.0     143.2495949082135
 2950.0     143.6688723035683
 3000.0     144.0802738702021
 3050.0     144.4837919232098
 3100.0     144.8825007826631
 3150.0     145.2742786666379
 3200.0     145.6591999856582
 3250.0     146.0391054719463
 3300.0     146.4131287302707
 3350.0     146.7808620205573
 3400.0     147.1434307674026
 3450.0     147.5011619501349
 3500.0     147.8532554696112
 3550.0     148.1997798669580
 3600.0     148.5426976305286
 3650.0     148.8804398514357
 3700.0     149.2130096522321
 3750.0     149.5420280243985
 3800.0     149.8662757831168
 3850.0     150.1859025897925
 3900.0     150.5018289767062
 3950.0     150.8137238783443
 4000.0     151.1215784336220
 4050.0     151.4256551611483
 4100.0     151.7260083476343
 4150.0     152.0229125325374
 4200.0     152.3158162759023
 4250.0     152.6055102681668
 4300.0     152.8920174314537
 4350.0     153.1747865996860
 4400.0     153.4545695215091
 4450.0     153.7313084941847
 4500.0     154.0045668342051
 4550.0     154.2749683529660
 4600.0     154.5427895337345
 4650.0     154.8074591196522
 4700.0     155.0687475358478
 4750.0     155.3281408633351
 4800.0     155.5847066733270
 4850.0     155.8378940806504
 4900.0     156.0891825252996
 4950.0     156.3377561870297
 5000.0     156.5835169222338
# V = 40.897692 (a.u.^3)
    0.0       3.9140374231645
   50.0      42.3264424657014
  100.0      61.6493916922616
  150.0      70.7318115840555
  200.0      77.9887101233306
  250.0      83.4743252735175
  300.0      87.7696457118411
  350.0      91.5282950946813
  400.0      94.9050256772197
  450.0      97.8719467084469
  500.0     100.4102677045971
  550.0     102.6109245625197
  600.0     104.7905829693699
  650.0     106.7581386957073
  700.0     108.5604509653348
  750.0     110.2461938493916
  800.0     111.8209629711304
  850.0     113.2377831070073
  900.0     114.7052285249939
  950.0     115.7118002493004
 1000.0     117.0075036377294
 1050.0     118.6052696915115
 1100.0     119.6631359909808
 1150.0     120.7409107374781
 1200.0     121.7249338848152
 1250.0     122.6864956361643
 1300.0     123.6490779592405
 1350.0     124.5731016750959
 1400.0     125.4627565518712
 1450.0     126.3225186962548
 1500.0     127.1523864419163
 1550.0     127.9554209135457
 1600.0     128.7330559481845
 1650.0     129.4862270117403
 1700.0     130.2171149528022
 1750.0     130.9271522237653
 1800.0     131.6170423813205
 1850.0     132.2875952855074
 1900.0     132.9407064808672
 1950.0     133.5768120366229
 2000.0     134.1969163479662
 2050.0     134.8018338458676
 2100.0     135.3917175422721
 2150.0     135.9673106627812
 2200.0     136.5302694593804
 2250.0     137.0813037311803
 2300.0     137.6189504966098
 2350.0     138.1455436709396
 2400.0     138.6614395590290
 2450.0     139.1661945567261
 2500.0     139.6604186505492
 2550.0     140.1454178818855
 2600.0     140.6214447026663
 2650.0     141.0877360026683
 2700.0     141.5450489208662
 2750.0     141.9947194221409
 2800.0     142.4359161330349
 2850.0     142.8691960652163
 2900.0     143.2947536096954
 2950.0     143.7140532763576
 3000.0     144.1256042075280
 3050.0     144.5294416733134
 3100.0     144.9281919940807
 3150.0     145.3200925384566
 3200.0     145.7052514733560
 3250.0     146.0852299217606
 3300.0     146.4593416384356
 3350.0     146.8272665954875
 3400.0     147.1899751385972
 3450.0     147.5477823373652
 3500.0     147.9000257152155
 3550.0     148.2467902998595
 3600.0     148.5897437659741
 3650.0     148.9275677120685
 3700.0     149.2603472722454
 3750.0     149.5894444233600
 3800.0     149.9137899190043
 3850.0     150.2335863663403
 3900.0     150.5496164232694
 3950.0     150.8616166495992
 4000.0     151.1695947263514
 4050.0     151.4737777329262
 4100.0     151.7742398683659
 4150.0     152.0712283050397
 4200.0     152.3642783597980
 4250.0     152.6540719370997
 4300.0     152.9406546010152
 4350.0     153.2235639413697
 4400.0     153.5034404164087
 4450.0     153.7802569787330
 4500.0     154.0536546318430
 4550.0     154.3241764455963
 4600.0     154.5920475980899
 4650.0     154.8567997959094
 4700.0     155.1182715624456
 4750.0     155.3776987344657
 4800.0     155.6343165272891
 4850.0     155.8876779977944
 4900.0     156.1390223797083
 4950.0     156.3876774137695
 5000.0     156.6335627564881
# V = 40.830890 (a.u.^3)
    0.0       3.9033868932914
   50.0      42.3187852386737
  100.0      61.6432123827273
  150.0      70.7324664410786
  200.0      77.9886800666034
  250.0      83.4672417555206
  300.0      87.7820070749011
  350.0      91.5344274357673
  400.0      94.9110812801576
  450.0      97.8706943077828
  500.0     100.4054811448773
  550.0     102.6266023525061
  600.0     104.8004102419657
  650.0     106.7712919926295
  700.0     108.5758702336446
  750.0     110.2635623884011
  800.0     111.8389683972094
  850.0     113.2692957143669
  900.0     114.7229875444081
  950.0     115.8013757970182
 1000.0     117.0877973964340
 1050.0     118.6019153181898
 1100.0     119.6745192291920
 1150.0     120.7518664362821
 1200.0     121.7528651803574
 1250.0     122.7223599128499
 1300.0     123.6848190271148
 1350.0     124.6092703968613
 1400.0     125.4993570928866
 1450.0     126.3594096643782
 1500.0     127.1895795755131
 1550.0     127.9928501590008
 1600.0     128.7707597252782
 1650.0     129.5242506914075
 1700.0     130.2554351018088
 1750.0     130.9656755679906
 1800.0     131.6558086430672
 1850.0     132.3266688257536
 1900.0     132.9799944737890
 1950.0     133.6163263338734
 2000.0     134.2366192742521
 2050.0     134.8417117526737
 2100.0     135.4318412543504
 2150.0     136.0077467149776
 2200.0     136.5709162828934
 2250.0     137.1219931124547
 2300.0     137.6599433789843
 2350.0     138.1867422194850
 2400.0     138.7027552946028
 2450.0     139.2077157826634
 2500.0     139.7022007137171
 2550.0     140.1873681927038
 2600.0     140.6634622299360
 2650.0     141.1299506609359
 2700.0     141.5875012737656
 2750.0     142.0372616352474
 2800.0     142.4786314895588
 2850.0     142.9120892748736
 2900.0     143.3378558068312
 2950.0     143.7571813051341
 3000.0     144.1688792526651
 3050.0     144.5730259468991
 3100.0     144.9718201555480
 3150.0     145.3638420547823
 3200.0     145.7492318744640
 3250.0     146.1292841448027
 3300.0     146.5034843428703
 3350.0     146.8715962559030
 3400.0     147.2344422595824
 3450.0     147.5923258314091
 3500.0     147.9447160128838
 3550.0     148.2917134946128
 3600.0     148.6347049199298
 3650.0     148.9726105360645
 3700.0     149.3055938350057
 3750.0     149.6347698158306
 3800.0     149.9592121046804
 3850.0     150.2791739105109
 3900.0     150.5953063083030
 3950.0     150.9074104664428
 4000.0     151.2155098024156
 4050.0     151.5197975830932
 4100.0     151.8203669889689
 4150.0     152.1174389428787
 4200.0     152.4106318598897
 4250.0     152.7005237194265
 4300.0     152.9871814749986
 4350.0     153.2702276650838
 4400.0     153.5501965425017
 4450.0     153.8270901778262
 4500.0     154.1006237607070
 4550.0     154.3712631631280
 4600.0     154.6391849428345
 4650.0     154.9040190075518
 4700.0     155.1656685172044
 4750.0     155.4251308639174
 4800.0     155.6818011020314
 4850.0     155.9353313739953
 4900.0     156.1867318665561
 4950.0     156.4354672653368
 5000.0     156.6814742688208
# V = 40.764088 (a.u.^3)
    0.0       3.8925293198842
   50.0      42.3105111178595
  100.0      61.6364055817464
  150.0      70.7322982861278
  200.0      77.9879365088895
  250.0      83.4598591874060
  300.0      87.7931596805008
  350.0      91.5396846445040
  400.0      94.9163265259495
  450.0      97.8690285499667
  500.0     100.4004669714779
  550.0     102.6410816457874
  600.0     104.8093503337559
  650.0     106.7834247037042
  700.0     108.5901791819401
  750.0     110.2797465053358
  800.0     111.8557753364641
  850.0     113.2989731291721
  900.0     114.7395904118282
  950.0     115.8863524333574
 1000.0     117.1639531829314
 1050.0     118.5984720994884
 1100.0     119.6851119039549
 1150.0     120.7620609339583
 1200.0     121.7792343528753
 1250.0     122.7562906001762
 1300.0     123.7186437333386
 1350.0     124.6435127445820
 1400.0     125.5340206324912
 1450.0     126.3943598681205
 1500.0     127.2248267998947
 1550.0     128.0283314530728
 1600.0     128.8065113976203
 1650.0     129.5603155660047
 1700.0     130.2917906479397
 1750.0     131.0022327020271
 1800.0     131.6926049342483
 1850.0     132.3637654162061
 1900.0     133.0173027613103
 1950.0     133.6538573994704
 2000.0     134.2743370369463
 2050.0     134.8796030324202
 2100.0     135.4699733741283
 2150.0     136.0461827617374
 2200.0     136.6095595120494
 2250.0     137.1606831702082
 2300.0     137.6989286202613
 2350.0     138.2259293042527
 2400.0     138.7420598314149
 2450.0     139.2472217933502
 2500.0     139.7419607573768
 2550.0     140.2272939477178
 2600.0     140.7034574490737
