# T (K)    Entropy (J K^-1 mol^-1)
# P = 600.000000 (GPa)
    0.0       3.6967491720471
   50.0      42.1045534678692
  100.0      61.4517923505784
  150.0      70.6274746800840
  200.0      77.8872678350938
  250.0      83.3059255574873
  300.0      87.8174560244761
  350.0      91.5126596799739
  400.0      94.8964667012847
  450.0      97.7898220299180
  500.0     100.2916479652853
  550.0     102.7173966382168
  600.0     104.8370828427000
  650.0     106.8443349263530
  700.0     108.6737837684672
  750.0     110.3832688515955
  800.0     111.9670458227328
  850.0     113.5326793113722
  900.0     114.8522586688909
  950.0     116.6436294983546
 1000.0     117.8400420646223
 1050.0     118.5287827820277
 1100.0     119.7482468771090
 1150.0     120.8225244734435
 1200.0     121.9937985624957
 1250.0     123.0432877264195
 1300.0     124.0060653291056
 1350.0     124.9362081488733
 1400.0     125.8319854685664
 1450.0     126.6963475209720
 1500.0     127.5308462833559
 1550.0     128.3377905257561
 1600.0     129.1197301679619
 1650.0     129.8776671460573
 1700.0     130.6130440170610
 1750.0     131.3265202322209
 1800.0     132.0202608283861
 1850.0     132.6953645472844
 1900.0     133.3519837520402
 1950.0     133.9917116687866
 2000.0     134.6150016306934
 2050.0     135.2229398339252
 2100.0     135.8166158172057
 2150.0     136.3967122526738
 2200.0     136.9630541035181
 2250.0     137.5155951238721
 2300.0     138.0576257330850
 2350.0     138.5875047936154
 2400.0     139.1056932656784
 2450.0     139.6137174467045
 2500.0     140.1118123744641
 2550.0     140.5996418609969
 2600.0     141.0773755597842
 2650.0     141.5468079000273
 2700.0     142.0077047050348
 2750.0     142.4593141735558
 2800.0     142.9033450216881
 2850.0     143.3395287917579
 2900.0     143.7683276198376
 2950.0     144.1888097974723
 3000.0     144.6028921356670
 3050.0     145.0110758702704
 3100.0     145.4111882636266
 3150.0     145.8053201695485
 3200.0     146.1939219124232
 3250.0     146.5755907957927
 3300.0     146.9515430085161
 3350.0     147.3224174388579
 3400.0     147.6875232613218
 3450.0     148.0470115531364
 3500.0     148.4017277569531
 3550.0     148.7519253721814
 3600.0     149.0961434852431
 3650.0     149.4356986947648
 3700.0     149.7715755999253
 3750.0     150.1023730785585
 3800.0     150.4286064471679
 3850.0     150.7510624245825
 3900.0     151.0690325724205
 3950.0     151.3829947441157
 4000.0     151.6931282015084
 4050.0     151.9992779494321
 4100.0     152.3017296406255
 4150.0     152.6004139065219
 4200.0     152.8958534287465
 4250.0     153.1875336341670
 4300.0     153.4757114586656
 4350.0     153.7609262852581
 4400.0     154.0426106193237
 4450.0     154.3210481161592
 4500.0     154.5967327020908
 4550.0     154.8693062651074
 4600.0     155.1384887870882
 4650.0     155.4049230519184
 4700.0     155.6691360500719
 4750.0     155.9296926860043
 4800.0     156.1876329586749
 4850.0     156.4436267245388
 4900.0     156.6963220466162
 4950.0     156.9466036720426
 5000.0     157.1945952474711
# P = 602.000000 (GPa)
    0.0       3.6861255315800
   50.0      42.0911135198031
  100.0      61.4392268283754
  150.0      70.6177494893453
  200.0      77.8782800223255
  250.0      83.2964367940435
  300.0      87.8120186531783
  350.0      91.5064169713668
  400.0      94.8909075239318
  450.0      97.7833545170816
  500.0     100.2846869351230
  550.0     102.7145636805042
  600.0     104.8334544650893
  650.0     106.8416513880428
  700.0     108.6717566010401
  750.0     110.3818344896083
  800.0     111.9659243640478
  850.0     113.5342615551671
  900.0     114.8514651040463
  950.0     116.6563566477703
 1000.0     117.8511232817068
 1050.0     118.5244726992525
 1100.0     119.7467959287350
 1150.0     120.8210740161066
 1200.0     121.9956307212970
 1250.0     123.0466505461844
 1300.0     124.0094861433781
 1350.0     124.9397789670151
 1400.0     125.8357004081391
 1450.0     126.7001797876837
 1500.0     127.5347884748662
 1550.0     128.3418282433135
 1600.0     129.1238665230684
 1650.0     129.8819045202243
 1700.0     130.6173750077325
 1750.0     131.3309243946054
 1800.0     132.0247418077516
 1850.0     132.6999303140564
 1900.0     133.3566156535182
 1950.0     133.9964083583966
 2000.0     134.6197543577783
 2050.0     135.2277433704111
 2100.0     135.8214803125806
 2150.0     136.4016446224487
 2200.0     136.9680369247851
 2250.0     137.5205986591124
 2300.0     138.0626904439237
 2350.0     138.5926124516849
 2400.0     139.1108280777901
 2450.0     139.6188921194526
 2500.0     140.1170335633970
 2550.0     140.6048931404854
 2600.0     141.0826407760326
 2650.0     141.5521054214778
 2700.0     142.0130392347722
 2750.0     142.4646625557901
 2800.0     142.9087170820326
 2850.0     143.3449255787517
 2900.0     143.7737520891380
 2950.0     144.1942339725899
 3000.0     144.6083327257492
 3050.0     145.0165557468721
 3100.0     145.4166674932767
 3150.0     145.8108097018972
 3200.0     146.1994356633381
 3250.0     146.5811066766075
 3300.0     146.9570618993609
 3350.0     147.3279528650503
 3400.0     147.6930679973691
 3450.0     148.0525552987002
 3500.0     148.4072796970937
 3550.0     148.7574960370064
 3600.0     149.1017079959126
 3650.0     149.4412612287798
 3700.0     149.7771514004552
 3750.0     150.1079460587679
 3800.0     150.4341779423018
 3850.0     150.7566408640979
 3900.0     151.0746091870962
 3950.0     151.3885697325046
 4000.0     151.6987034602652
 4050.0     152.0048510670152
 4100.0     152.3073004766657
 4150.0     152.6059781220937
 4200.0     152.9014191891861
 4250.0     153.1930955506050
 4300.0     153.4812650849144
 4350.0     153.7664794360531
 4400.0     154.0481582083559
 4450.0     154.3265876498910
 4500.0     154.6022707557998
 4550.0     154.8748392072819
 4600.0     155.1440099659097
 4650.0     155.4104368923644
 4700.0     155.6746514870833
 4750.0     155.9351943730369
 4800.0     156.1931225965110
 4850.0     156.4491163832024
 4900.0     156.7017993857249
 4950.0     156.9520713606792
 5000.0     157.2000581392514
# P = 604.000000 (GPa)
    0.0       3.6754043709573
   50.0      42.0773799404255
  100.0      61.4263500090921
  150.0      70.6076278041738
  200.0      77.8689366694021
  250.0      83.2867584733658
  300.0      87.8060208826662
  350.0      91.4997480606766
  400.0      94.8849489245447
  450.0      97.7766447589196
  500.0     100.2775586252165
  550.0     102.7111739506975
  600.0     104.8293953039467
  650.0     106.8384847091172
  700.0     108.6692126923596
  750.0     110.3798567305363
  800.0     111.9642553104094
  850.0     113.5350581835109
  900.0     114.8501401570496
  950.0     116.6672843251095
 1000.0     117.8605895050292
 1050.0     118.5200546052074
 1100.0     119.7449739423306
 1150.0     120.8192667368446
 1200.0     121.9968196390293
 1250.0     123.0492434570345
 1300.0     124.0121502951858
 1350.0     124.9425965463264
 1400.0     125.8386653448107
 1450.0     126.7032677222296
 1500.0     127.5379914628816
 1550.0     128.3451329397260
 1600.0     129.1272752443695
 1650.0     129.8854188379144
 1700.0     130.6209877566475
 1750.0     131.3346164961499
 1800.0     132.0285161273874
 1850.0     132.7037938053728
 1900.0     133.3605509200826
 1950.0     134.0004138182360
 2000.0     134.6238216466947
 2050.0     135.2318673985986
 2100.0     135.8256700603023
 2150.0     136.4059060164627
 2200.0     136.9723538918346
 2250.0     137.5249437331572
 2300.0     138.0671003362763
 2350.0     138.5970702272285
 2400.0     139.1153190350992
 2450.0     139.6234277010270
 2500.0     140.1216196060035
 2550.0     140.6095143807382
 2600.0     141.0872822817407
 2650.0     141.5567837939235
 2700.0     142.0177585785752
 2750.0     142.4694015417515
 2800.0     142.9134843611786
 2850.0     143.3497221017336
 2900.0     143.7785803720406
 2950.0     144.1990681693599
 3000.0     144.6131880072457
 3050.0     145.0214529819108
 3100.0     145.4215698453482
 3150.0     145.8157271263162
 3200.0     146.2043807299108
 3250.0     146.5860590641425
 3300.0     146.9620222346633
 3350.0     147.3329334949932
 3400.0     147.6980622172648
 3450.0     148.0575533825894
 3500.0     148.4122899981194
 3550.0     148.7625280936680
 3600.0     149.1067390210344
 3650.0     149.4462948348140
 3700.0     149.7822014684457
 3750.0     150.1129977868517
 3800.0     150.4392324032787
 3850.0     150.7617057278235
 3900.0     151.0796762778756
 3950.0     151.3936391857096
 4000.0     151.7037769450861
 4050.0     152.0099262893593
 4100.0     152.3123772156045
 4150.0     152.6110521980688
 4200.0     152.9064981691476
 4250.0     153.1981744330339
 4300.0     153.4863395724425
 4350.0     153.7715567190058
 4400.0     154.0532335873051
 4450.0     154.3316587128087
 4500.0     154.6073434911976
 4550.0     154.8799100879351
 4600.0     155.1490729285371
 4650.0     155.4154960436808
 4700.0     155.6797148439379
 4750.0     155.9402478215540
 4800.0     156.1981676414434
 4850.0     156.4541640184669
 4900.0     156.7068382228295
 4950.0     156.9571038150341
 5000.0     157.2050886824566
# P = 606.000000 (GPa)
    0.0       3.6645858052180
   50.0      42.0633552738264
  100.0      61.4131640869196
  150.0      70.5971137569493
  200.0      77.8592407293935
  250.0      83.2768894430010
  300.0      87.7994703831625
  350.0      91.4926573389783
  400.0      94.8785945423247
  450.0      97.7696926338252
  500.0     100.2702610958824
  550.0     102.7072347299733
  600.0     104.8249095944326
  650.0     106.8348403212239
  700.0     108.6661582121587
  750.0     110.3773423068249
  800.0     111.9620454688105
  850.0     113.5350812929005
  900.0     114.8482903103311
  950.0     116.6764466521067
 1000.0     117.8684705374426
 1050.0     118.5155251492852
 1100.0     119.7427834227157
 1150.0     120.8171047782676
 1200.0     121.9973735520019
 1250.0     123.0510772870192
 1300.0     124.0140682217660
 1350.0     124.9446711479718
 1400.0     125.8408903700080
 1450.0     126.7056211996595
 1500.0     127.5404649226020
 1550.0     128.3477140716601
 1600.0     129.1299655909724
 1650.0     129.8882191790854
 1700.0     130.6238911640313
 1750.0     131.3376052337681
 1800.0     132.0315923003956
 1850.0     132.7069633710839
 1900.0     133.3637977189489
 1950.0     134.0037360397220
 2000.0     134.6272113103103
 2050.0     135.2353195526488
 2100.0     135.8291925403129
 2150.0     136.4095037800146
 2200.0     136.9760121944532
 2250.0     137.5286373435892
 2300.0     138.0708622834555
 2350.0     138.6008848494976
 2400.0     139.1191727071605
 2450.0     139.6273306248704
 2500.0     140.1255768156170
 2550.0     140.6135117582659
 2600.0     141.0913060997365
 2650.0     141.5608489173094
 2700.0     142.0218685251785
 2750.0     142.4735367824832
 2800.0     142.9176523939186
 2850.0     143.3539237825142
 2900.0     143.7828177863373
 2950.0     144.2033175719155
 3000.0     144.6174630557952
 3050.0     145.0257725737612
 3100.0     145.4259001972385
 3150.0     145.8200772156654
 3200.0     146.2087618017175
 3250.0     146.5904525408895
 3300.0     146.9664284951285
 3350.0     147.3373637253911
 3400.0     147.7025102272964
 3450.0     148.0620100147886
 3500.0     148.4167627859618
 3550.0     148.7670255985205
 3600.0     149.1112405195704
 3650.0     149.4508033834576
 3700.0     149.7867296051549
 3750.0     150.1175319780859
 3800.0     150.4437734637868
 3850.0     150.7662605784226
 3900.0     151.0842373293567
 3950.0     151.3982065113592
 4000.0     151.7083519899433
 4050.0     152.0145068757135
 4100.0     152.3169630432704
 4150.0     152.6156392454192
 4200.0     152.9110934119577
 4250.0     153.2027732528985
 4300.0     153.4909378202445
 4350.0     153.7761609691019
 4400.0     154.0578395235939
 4450.0     154.3362640053657
 4500.0     154.6119535493677
 4550.0     154.8845214893779
 4600.0     155.1536801928883
 4650.0     155.4201029637396
 4700.0     155.6843285303590
 4750.0     155.9448553808659
 4800.0     156.2027703857698
 4850.0     156.4587718787276
 4900.0     156.7114407536432
 4950.0     156.9617031822052
 5000.0     157.2096889806044
# P = 608.000000 (GPa)
    0.0       3.6536699307467
   50.0      42.0490420124322
  100.0      61.3996712059096
  150.0      70.5862114266017
  200.0      77.8491951148378
  250.0      83.2668285386426
  300.0      87.7923747658435
  350.0      91.4851491590821
  400.0      94.8718479841524
  450.0      97.7624980120736
  500.0     100.2627924101296
  550.0     102.7027532489527
  600.0     104.8200015398823
  650.0     106.8307236181362
  700.0     108.6625992885955
  750.0     110.3742979070129
  800.0     111.9593016019014
  850.0     113.5343429091139
  900.0     114.8459220007254
  950.0     116.6838775849661
 1000.0     117.8747960404375
 1050.0     118.5108809887227
 1100.0     119.7402268546454
 1150.0     120.8145902661556
 1200.0     121.9973006560153
 1250.0     123.0521628150775
 1300.0     124.0152503152961
 1350.0     124.9460129908649
 1400.0     125.8423855355001
 1450.0     126.7072500586813
 1500.0     127.5422184959395
 1550.0     128.3495810655834
 1600.0     129.1319467948506
 1650.0     129.8903145996613
 1700.0     130.6260941093798
 1750.0     131.3398992872521
 1800.0     132.0339788261132
 1850.0     132.7094473510572
 1900.0     133.3663642112023
 1950.0     134.0063830117714
 2000.0     134.6299311623608
 2050.0     135.2381074712682
 2100.0     135.8320552405561
 2150.0     136.4124452691379
 2200.0     136.9790190361979
 2250.0     137.5316865043492
 2300.0     138.0739831772650
 2350.0     138.6040630681933
 2400.0     139.1223956857381
 2450.0     139.6306073478995
 2500.0     140.1289115298319
 2550.0     140.6168914743059
 2600.0     141.0947182773595
 2650.0     141.5643067153981
 2700.0     142.0253748861848
 2750.0     142.4770739499210
 2800.0     142.9212267335885
 2850.0     143.3575360582833
 2900.0     143.7864696609911
 2950.0     144.2069873711383
 3000.0     144.6211629487263
 3050.0     145.0295195175580
 3100.0     145.4296634183202
 3150.0     145.8238647295816
 3200.0     146.2125835497905
 3250.0     146.5942916657266
 3300.0     146.9702851328884
 3350.0     147.3412479196782
 3400.0     147.7064162963377
 3450.0     148.0659293640457
 3500.0     148.4207021420520
 3550.0     148.7709925605453
 3600.0     149.1152164011158
 3650.0     149.4547906944837
 3700.0     149.7907395603678
 3750.0     150.1215522965648
 3800.0     150.4478047075329
 3850.0     150.7703089305871
 3900.0     151.0882957812815
 3950.0     151.4022750764685
 4000.0     151.7124318936996
 4050.0     152.0185960568003
 4100.0     152.3210611248242
 4150.0     152.6197423641895
 4200.0     152.9152079601445
 4250.0     153.2068949915214
 4300.0     153.4950627481460
 4350.0     153.7802950524502
 4400.0     154.0619788254035
 4450.0     154.3404062777691
 4500.0     154.6161036299562
 4550.0     154.8886760602232
 4600.0     155.1578343499370
 4650.0     155.4242601897393
 4700.0     155.6884950406970
 4750.0     155.9490194888818
 4800.0     156.2069332134960
 4850.0     156.4629423062953
 4900.0     156.7156092682571
 4950.0     156.9658717030875
 5000.0     157.2138612295676
# P = 610.000000 (GPa)
    0.0       3.6426568294868
   50.0      42.0344426211264
  100.0      61.3858734882559
  150.0      70.5749248618526
  200.0      77.8388027178471
  250.0      83.2565746042477
  300.0      87.7847415971406
  350.0      91.4772278528941
  400.0      94.8647128422169
  450.0      97.7550607761025
  500.0     100.2551506561485
  550.0     102.6977367036576
  600.0     104.8146753284207
  650.0     106.8261399697805
  700.0     108.6585420206953
  750.0     110.3707301863808
  800.0     111.9560304381176
  850.0     113.5328549937016
  900.0     114.8430416293138
  950.0     116.6896109042388
 1000.0     117.8795955265131
 1050.0     118.5061188037999
 1100.0     119.7373067136670
 1150.0     120.8117253193591
 1200.0     121.9966091108957
 1250.0     123.0525107734629
 1300.0     124.0157069240006
 1350.0     124.9466322517327
 1400.0     125.8431608527517
 1450.0     126.7081640992545
 1500.0     127.5432617874038
 1550.0     128.3507433121110
 1600.0     129.1332280534017
 1650.0     129.8917141219751
 1700.0     130.6276054394489
 1750.0     131.3415073044871
 1800.0     132.0356841728269
 1850.0     132.7112540546871
 1900.0     133.3682585278216
 1950.0     134.0083626939877
 2000.0     134.6319889880208
 2050.0     135.2402387649803
 2100.0     135.8342656214455
 2150.0     136.4147378132274
 2200.0     136.9813815948383
 2250.0     137.5340982046105
 2300.0     138.0764698861803
 2350.0     138.6066116111625
 2400.0     139.1249945422458
 2450.0     139.6332643084640
 2500.0     140.1316300698783
 2550.0     140.6196597160163
 2600.0     141.0975248501654
 2650.0     141.5671631029546
 2700.0     142.0282834670486
 2750.0     142.4800187133318
 2800.0     142.9242129344743
 2850.0     143.3605643710384
 2900.0     143.7895413342143
 2950.0     144.2100827716341
 3000.0     144.6242927818824
 3050.0     145.0326988314902
 3100.0     145.4328644050066
 3150.0     145.8270944590490
 3200.0     146.2158506807637
 3250.0     146.5975810363445
 3300.0     146.9735966422732
 3350.0     147.3445904867679
 3400.0     147.7097847412302
 3450.0     148.0693156493258
 3500.0     148.4241121999327
 3550.0     148.7744330423033
 3600.0     149.1186706292715
 3650.0     149.4582606419619
 3700.0     149.7942351377962
 3750.0     150.1250624587536
 3800.0     150.4513297685841
 3850.0     150.7738543466888
 3900.0     151.0918551172689
 3950.0     151.4058482872875
 4000.0     151.7160199887360
 4050.0     152.0221970902951
 4100.0     152.3246746449405
 4150.0     152.6233646651241
 4200.0     152.9188448582468
 4250.0     153.2105426237099
 4300.0     153.4987172606723
 4350.0     153.7839618115400
 4400.0     154.0656542696323
 4450.0     154.3440882414751
 4500.0     154.6197963867568
 4550.0     154.8923763967684
 4600.0     155.1615379324120
 4650.0     155.4279701953537
 4700.0     155.6922168010423
 4750.0     155.9527425115180
 4800.0     156.2106584335753
 4850.0     156.4666775660447
 4900.0     156.7193459781601
 4950.0     156.9696115396301
 5000.0     157.2176075467719
# P = 612.000000 (GPa)
    0.0       3.6315465868783
   50.0      42.0195595681601
  100.0      61.3717730695754
  150.0      70.5632581128077
  200.0      77.8280664359882
  250.0      83.2461265093394
  300.0      87.7765784091771
  350.0      91.4688977311427
  400.0      94.8571926879375
  450.0      97.7473808011054
  500.0     100.2473339212145
  550.0     102.6921922353470
  600.0     104.8089351095991
  650.0     106.8210947010175
  700.0     108.6539924593059
  750.0     110.3666457505219
  800.0     111.9522386558289
  850.0     113.5306294403622
  900.0     114.8396555472343
  950.0     116.6936802627792
 1000.0     117.8828984006238
 1050.0     118.5012352688927
 1100.0     119.7340254497732
 1150.0     120.8085120335637
 1200.0     121.9953070403842
 1250.0     123.0521318556336
 1300.0     124.0154483609983
 1350.0     124.9465390756050
 1400.0     125.8432263045724
 1450.0     126.7083730956793
 1500.0     127.5436043790215
 1550.0     128.3512101820151
 1600.0     129.1338185466916
 1650.0     129.8924267537502
 1700.0     130.6284339888088
 1750.0     131.3424379233698
 1800.0     132.0367168006999
 1850.0     132.7123917852373
 1900.0     133.3694887956134
 1950.0     134.0096830428918
 2000.0     134.6333925707454
 2050.0     135.2417210438834
 2100.0     135.8358311436333
 2150.0     136.4163887427329
 2200.0     136.9831070495601
 2250.0     137.5358794350149
 2300.0     138.0783292798774
 2350.0     138.6085372070330
 2400.0     139.1269758482255
 2450.0     139.6353079442084
 2500.0     140.1337387550575
 2550.0     140.6218226673320
 2600.0     141.0997318494150
 2650.0     141.5694239888460
