# T (K)      fittedE (Ry.)      P (GPa)
# V = 41.164900 (a.u.^3)
    0.0       0.6728523065384     543.8656376746833
   50.0       0.6735232060640     543.9247004766509
  100.0       0.6745666343569     543.9570735058916
  150.0       0.6754243761564     543.9639934600974
  200.0       0.6763858543932     543.9088772299839
  250.0       0.6773276815892     543.9326291587283
  300.0       0.6782055187227     543.9151056885274
  350.0       0.6791447606726     543.7209807998019
  400.0       0.6801060190502     543.7253439430804
  450.0       0.6810792383284     543.5827925614332
  500.0       0.6819994330373     543.7028801659034
  550.0       0.6828446830438     543.5652768080887
  600.0       0.6838104431503     543.4387371767206
  650.0       0.6847398789635     543.3018855142142
  700.0       0.6856614455765     543.1441201092571
  750.0       0.6865876696328     542.9598211223800
  800.0       0.6875158055055     542.7669432368206
  850.0       0.6883673858093     542.5223426271274
  900.0       0.6893893357656     542.1906270133669
  950.0       0.6898639902972     541.8435711546567
 1000.0       0.6908694551128     540.6089520651411
 1050.0       0.6924034798396     540.4306240469491
 1100.0       0.6932173137566     540.3235904074387
 1150.0       0.6941421370179     540.2320383252592
 1200.0       0.6949548518066     540.0231219376517
 1250.0       0.6958196358324     539.6746611129497
 1300.0       0.6967554102955     539.3004172665641
 1350.0       0.6976864071409     538.9258997371703
 1400.0       0.6986165890087     538.5455783069913
 1450.0       0.6995487779714     538.1634951225768
 1500.0       0.7004800553897     537.7774753124787
 1550.0       0.7014120410240     537.3902001780752
 1600.0       0.7023439221493     536.9997028274062
 1650.0       0.7032748137555     536.6074756923352
 1700.0       0.7042060804286     536.2113288678351
 1750.0       0.7051382569515     535.8139163155637
 1800.0       0.7060699894418     535.4137832406852
 1850.0       0.7070006477095     535.0119215654730
 1900.0       0.7079325188150     534.6066277836666
 1950.0       0.7088641717453     534.2005982138919
 2000.0       0.7097962446205     533.7914041532041
 2050.0       0.7107285261730     533.3819795749081
 2100.0       0.7116595965447     532.9694499540741
 2150.0       0.7125894348016     532.5555291514321
 2200.0       0.7135210224596     532.1376831391543
 2250.0       0.7144550369917     531.7201741983481
 2300.0       0.7153848269634     531.3004831591965
 2350.0       0.7163162419687     530.8784610700390
 2400.0       0.7172490476770     530.4549919069846
 2450.0       0.7181801595454     530.0304230061490
 2500.0       0.7191101537728     529.6033065872775
 2550.0       0.7200419793870     529.1743382535234
 2600.0       0.7209755461977     528.7442332839819
 2650.0       0.7219065810603     528.3135241213303
 2700.0       0.7228366999172     527.8801016466369
 2750.0       0.7237697011856     527.4455744365790
 2800.0       0.7247011053316     527.0099236889747
 2850.0       0.7256322132323     526.5725051565545
 2900.0       0.7265625672115     526.1335078492215
 2950.0       0.7274970043748     525.6929200814503
 3000.0       0.7284285735870     525.2527259550159
 3050.0       0.7293563806429     524.8093519447852
 3100.0       0.7302903782910     524.3646441024637
 3150.0       0.7312224133264     523.9195529406110
 3200.0       0.7321518678735     523.4725977782168
 3250.0       0.7330849683825     523.0240277268385
 3300.0       0.7340177103744     522.5753125618129
 3350.0       0.7349479102945     522.1249760485083
 3400.0       0.7358792517114     521.6732670984156
 3450.0       0.7368123115992     521.2204816836007
 3500.0       0.7377434102817     520.7670733388217
 3550.0       0.7386721615888     520.3115358112842
 3600.0       0.7396060980921     519.8546217721318
 3650.0       0.7405383578928     519.3978023318398
 3700.0       0.7414678339021     518.9392484933642
 3750.0       0.7424010914310     518.4793927109712
 3800.0       0.7433329649169     518.0190306905488
 3850.0       0.7442630305737     517.5573073023317
 3900.0       0.7451949672235     517.0942903566646
 3950.0       0.7461268491588     516.6305287180219
 4000.0       0.7470581878469     516.1656069623001
 4050.0       0.7479898242321     515.6997526673526
 4100.0       0.7489214460407     515.2328927190271
 4150.0       0.7498539077755     514.7651976476012
 4200.0       0.7507842951779     514.2966009574541
 4250.0       0.7517159966061     513.8265970107561
 4300.0       0.7526485832677     513.3561757372802
 4350.0       0.7535790668484     512.8845944283850
 4400.0       0.7545108624177     512.4119840256501
 4450.0       0.7554432164304     511.9386631576683
 4500.0       0.7563735419419     511.4644680392661
 4550.0       0.7573046312781     510.9888678201334
 4600.0       0.7582378142466     510.5126621891172
 4650.0       0.7591697136620     510.0359277533702
 4700.0       0.7600984566709     509.5580666035085
 4750.0       0.7610320948682     509.0787369501622
 4800.0       0.7619650797713     508.5998413801966
 4850.0       0.7628939590569     508.1193285592354
 4900.0       0.7638268422650     507.6379797883679
 4950.0       0.7647587905714     507.1560714025059
 5000.0       0.7656889996641     506.6732397356042
# V = 41.098098 (a.u.^3)
    0.0       0.6753277457305     546.3733917538036
   50.0       0.6759987237385     546.4361431314757
  100.0       0.6770422284232     546.4739664661582
  150.0       0.6779007466405     546.4863760531928
  200.0       0.6788619686249     546.4386993871160
  250.0       0.6798023501432     546.4659996244299
  300.0       0.6806851928240     546.4533880190771
  350.0       0.6816222097740     546.2712962654491
  400.0       0.6825837582376     546.2791268332094
  450.0       0.6835536387178     546.1456969309932
  500.0       0.6844727497525     546.2638466572499
  550.0       0.6853274947955     546.1348636894905
  600.0       0.6862902192123     546.0163312969817
  650.0       0.6872214810636     545.8876829876450
  700.0       0.6881444143270     545.7388388811474
  750.0       0.6890718697299     545.5644046662104
  800.0       0.6900004196426     545.3816215067460
  850.0       0.6908622321919     545.1491370802240
  900.0       0.6918728472445     544.8330427601403
  950.0       0.6924090592433     544.5021061487440
 1000.0       0.6934046491970     543.3202129501973
 1050.0       0.6948613306467     543.1508043441221
 1100.0       0.6956893472154     543.0496214454905
 1150.0       0.6966138395312     542.9632516039429
 1200.0       0.6974446968756     542.7642534101534
 1250.0       0.6983182510318     542.4313899201262
 1300.0       0.6992538369370     542.0737300881259
 1350.0       0.7001853110001     541.7157265742889
 1400.0       0.7011159869553     541.3520861132423
 1450.0       0.7020485108158     540.9866808847117
 1500.0       0.7029801486857     540.6174313143011
 1550.0       0.7039124205598     540.2469104142533
 1600.0       0.7048446495057     539.8732333934273
 1650.0       0.7057759735309     539.4978337579350
 1700.0       0.7067076463561     539.1186140090419
 1750.0       0.7076401002992     538.7381204398861
 1800.0       0.7085721805991     538.3549603171220
 1850.0       0.7095033079284     537.9700860886486
 1900.0       0.7104354987540     537.5818654311023
 1950.0       0.7113675075353     537.1928854512171
 2000.0       0.7122998730008     536.8008187532656
 2050.0       0.7132324366512     536.4084802423168
 2100.0       0.7141639253617     536.0131144698432
 2150.0       0.7150943281969     535.6163662205021
 2200.0       0.7160262857519     535.2158072527266
 2250.0       0.7169603449105     534.8155242585182
 2300.0       0.7178907197008     534.4131043034500
 2350.0       0.7188225264893     534.0084037804988
 2400.0       0.7197555417420     533.6022733893828
 2450.0       0.7206870647385     533.1950452366539
 2500.0       0.7216176028696     532.7853332524111
 2550.0       0.7225497720476     532.3738040301433
 2600.0       0.7234834517218     531.9611459869366
 2650.0       0.7244149158969     531.5478682148322
 2700.0       0.7253455689302     531.1319511349305
 2750.0       0.7262787491453     530.7149357952910
 2800.0       0.7272105487819     530.2968068683585
 2850.0       0.7281420698096     529.8769464707482
 2900.0       0.7290729278529     529.4555360588264
 2950.0       0.7300073882525     529.0325653597833
 3000.0       0.7309393151907     528.6099378934479
 3050.0       0.7318679287321     528.1842270856811
 3100.0       0.7328020056576     527.7572034487383
 3150.0       0.7337343431465     527.3297802419531
 3200.0       0.7346644223196     526.9005365593299
 3250.0       0.7355976944539     526.4697135791707
 3300.0       0.7365306581366     526.0387189173300
 3350.0       0.7374613797094     525.6061397766355
 3400.0       0.7383930990421     525.1722124113003
 3450.0       0.7393263538348     524.7372237577270
 3500.0       0.7402578751282     524.3016080748649
 3550.0       0.7411873311334     523.8639224902170
 3600.0       0.7421213448629     523.4248877949187
 3650.0       0.7430538321807     522.9859150100406
 3700.0       0.7439839467368     522.5452516415745
 3750.0       0.7449174268426     522.1033121908677
 3800.0       0.7458495903222     521.6608598468530
 3850.0       0.7467801885071     521.2170756509988
 3900.0       0.7477124428368     520.7720242819940
 3950.0       0.7486446528457     520.3262333278377
 4000.0       0.7495763863278     519.8793035943228
 4050.0       0.7505083628621     519.4314543095823
 4100.0       0.7514403387392     518.9826147847615
 4150.0       0.7523730722464     518.5329504259823
 4200.0       0.7533039591682     518.0823973874861
 4250.0       0.7542359931079     517.6304697278006
 4300.0       0.7551688303982     517.1781180248139
 4350.0       0.7560998092083     516.7246308660247
 4400.0       0.7570319281859     516.2701328521246
 4450.0       0.7579645490774     515.8149303749772
 4500.0       0.7588953853532     515.3588663557243
 4550.0       0.7598269174564     514.9014329578450
 4600.0       0.7607602675831     514.4433975206344
 4650.0       0.7616924662487     513.9848320129653
 4700.0       0.7626219241413     513.5251638155110
 4750.0       0.7635556677645     513.0640660989876
 4800.0       0.7644888383164     512.6033627464907
 4850.0       0.7654184159268     512.1410875765008
 4900.0       0.7663515048878     511.6779899876427
 4950.0       0.7672837702284     511.2143351988803
 5000.0       0.7682144860065     510.7497742470258
# V = 41.031296 (a.u.^3)
    0.0       0.6778145964054     548.8915093587676
   50.0       0.6784856463135     548.9579599197592
  100.0       0.6795292282959     549.0012448371100
  150.0       0.6803885009361     549.0191570245584
  200.0       0.6813494866050     548.9789144349761
  250.0       0.6822884942182     549.0097984375690
  300.0       0.6831761370772     549.0021206553996
  350.0       0.6841110299444     548.8320120038752
  400.0       0.6850728716192     548.8433480904403
  450.0       0.6860395662133     548.7190202326092
  500.0       0.6869576440471     548.8353265937701
  550.0       0.6878214904871     548.7149506075178
  600.0       0.6887813181463     548.6044186924320
  650.0       0.6897143404393     548.4839650639884
  700.0       0.6906385917369     548.3440267977395
  750.0       0.6915672363263     548.1794323668264
  800.0       0.6924961915112     548.0067167978868
  850.0       0.6933678140836     547.7863007590223
  900.0       0.6943675801592     547.4857443824001
  950.0       0.6949627736364     547.1708388011749
 1000.0       0.6959489126707     546.0412081474072
 1050.0       0.6973315138639     545.8807050386093
 1100.0       0.6981731230588     545.7853902662399
 1150.0       0.6990973050434     545.7042271306171
 1200.0       0.6999455558515     545.5151234574532
 1250.0       0.7008275204312     545.1977752584436
 1300.0       0.7017629353377     544.8566075734904
 1350.0       0.7026948759526     544.5150271714579
 1400.0       0.7036260346101     544.1679750691012
 1450.0       0.7045588890452     543.8191553901612
 1500.0       0.7054908815125     543.4665828610440
 1550.0       0.7064234371276     543.1127232909333
 1600.0       0.7073560088424     542.7557729769254
 1650.0       0.7082877565930     542.3971074874642
 1700.0       0.7092198280170     542.0347205133763
 1750.0       0.7101525571689     541.6710519041775
 1800.0       0.7110849800977     541.3047701469164
 1850.0       0.7120165663402     540.9367887050765
 1900.0       0.7129490729593     540.5655457930782
 1950.0       0.7138814321439     540.1935203673419
 2000.0       0.7148140873627     539.8184852941114
 2050.0       0.7157469306983     539.4431375371257
 2100.0       0.7166788297223     539.0648399158268
 2150.0       0.7176097828497     538.6851681306338
 2200.0       0.7185421043181     538.3017992158665
 2250.0       0.7194762156397     537.9186459321154
 2300.0       0.7204071602794     537.5334003064499
 2350.0       0.7213393518541     537.1459241948914
 2400.0       0.7222725772428     536.7570353637377
 2450.0       0.7232045036424     536.3670508451315
 2500.0       0.7241355723730     535.9746455323375
 2550.0       0.7250680800863     535.5804575685506
 2600.0       0.7260018773371     535.1851484149382
 2650.0       0.7269337623218     534.7892043028650
 2700.0       0.7278649366557     534.3906941808815
 2750.0       0.7287982978416     533.9910920461391
 2800.0       0.7297304856164     533.5903866418265
 2850.0       0.7306624120408     533.1879854848572
 2900.0       0.7315937625630     532.7840629231072
 2950.0       0.7325282545264     532.3786100679009
 3000.0       0.7334605336254     531.9734506328899
 3050.0       0.7343899295365     531.5653033494837
 3100.0       0.7353240916729     531.1558643541400
 3150.0       0.7362567284216     530.7460094488169
 3200.0       0.7371874154559     530.3343774127073
 3250.0       0.7381208615001     529.9212009723184
 3300.0       0.7390540469311     529.5078270008204
 3350.0       0.7399852779101     529.0929051994121
 3400.0       0.7409173690094     528.6766589527132
 3450.0       0.7418508197400     528.2593665207665
 3500.0       0.7427827552944     527.8414431439411
 3550.0       0.7437128958425     527.4215085869323
 3600.0       0.7446469932537     527.0002519895157
 3650.0       0.7455797079238     526.5790250754568
 3700.0       0.7465104436838     526.1561510004386
 3750.0       0.7474441465950     525.7320263578016
 3800.0       0.7483765972910     525.3073824278900
 3850.0       0.7493077151704     524.8814357782927
 3900.0       0.7502402831903     524.4542483888403
 3950.0       0.7511728170114     524.0263264240684
 4000.0       0.7521049382764     523.5972866093591
 4050.0       0.7530372502443     523.1673403130842
 4100.0       0.7539695748677     522.7364191451140
 4150.0       0.7549025778051     522.3046832608416
 4200.0       0.7558339529526     521.8720715950263
 4250.0       0.7567663151678     521.4381176126610
 4300.0       0.7576994017270     521.0037330705378
 4350.0       0.7586308645222     520.5682374684943
 4400.0       0.7595633030112     520.1317490255042
 4450.0       0.7604961890356     519.6945620028592
 4500.0       0.7614275241975     519.2565263975281
 4550.0       0.7623594894916     518.8171564027774
 4600.0       0.7632930091886     518.3771881393393
 4650.0       0.7642255044522     517.9366881497890
 4700.0       0.7651556566248     517.4951095601111
 4750.0       0.7660895107445     517.0521400907667
 4800.0       0.7670228686645     516.6095256315225
 4850.0       0.7679531247072     516.1653844269430
 4900.0       0.7688864201355     515.7204342447076
 4950.0       0.7698189986515     515.2749291735419
 5000.0       0.7707502096324     514.8285349122849
# V = 40.964494 (a.u.^3)
    0.0       0.6803129057098     551.4200277672996
   50.0       0.6809840209451     551.4901880702305
  100.0       0.6820276810719     551.5389454963380
  150.0       0.6828876863644     551.5623733579432
  200.0       0.6838484554239     551.5295587530302
  250.0       0.6847861601416     551.5640621490973
  300.0       0.6856783999288     551.5613404342562
  350.0       0.6866112685592     551.4031630063287
  400.0       0.6875734065257     551.4180432449764
  450.0       0.6885370665357     551.3027971717203
  500.0       0.6894541610952     551.4173561589464
  550.0       0.6903267193773     551.3055731087059
  600.0       0.6912837877464     551.2030341828342
  650.0       0.6922185055541     551.0907660975457
  700.0       0.6931440267596     550.9597172742465
  750.0       0.6940738187986     550.8049364880375
  800.0       0.6950031705632     550.6422603369722
  850.0       0.6958841853202     550.4338634857019
  900.0       0.6968735832697     550.1487591218743
  950.0       0.6975252090505     549.8497937650602
 1000.0       0.6985023166719     548.7719516287723
 1050.0       0.6998140666276     548.6203388775143
 1100.0       0.7006686845528     548.5309097229483
 1150.0       0.7015925765863     548.4549779218631
 1200.0       0.7024574795524     548.2757437160809
 1250.0       0.7033474985762     547.9738265759470
 1300.0       0.7042827598433     547.6490567862347
 1350.0       0.7052151564379     547.3238058566499
 1400.0       0.7061467865123     546.9932469547524
 1450.0       0.7070799672268     546.6609179611481
 1500.0       0.7080123084814     546.3249265964873
 1550.0       0.7089451453468     545.9876328224481
 1600.0       0.7098780548138     545.6473133710851
 1650.0       0.7108102176689     545.3052859711657
 1700.0       0.7117426801995     544.9596347763061
 1750.0       0.7126756823547     544.6126941804830
 1800.0       0.7136084427687     544.2631936706579
 1850.0       0.7145404778635     543.9120077912269
 1900.0       0.7154732963727     543.5576445512892
 1950.0       0.7164060005518     543.2024759246877
 2000.0       0.7173389426994     542.8443740923838
 2050.0       0.7182720633158     542.4859192445215
 2100.0       0.7192043646934     542.1245909741373
 2150.0       0.7201358539580     541.7618972039697
 2200.0       0.7210685334008     541.3956185334513
 2250.0       0.7220027043264     541.0294959761628
 2300.0       0.7229342039833     540.6613253080212
 2350.0       0.7238667734036     540.2909738031791
 2400.0       0.7248002094969     539.9192267722244
 2450.0       0.7257325316370     539.5463858217532
 2500.0       0.7266641177830     539.1711868326935
 2550.0       0.7275969590387     538.7942393101290
 2600.0       0.7285308785134     538.4161783145954
 2650.0       0.7294631758754     538.0374673515192
 2700.0       0.7303948587493     537.6562629169833
 2750.0       0.7313284028913     537.2739730310577
 2800.0       0.7322609715135     536.8905896584129
 2850.0       0.7331932956654     536.5055463409583
 2900.0       0.7341251271837     536.1190097423772
 2950.0       0.7350596589363     535.7309727337645
 3000.0       0.7359922846714     535.3431799248687
 3050.0       0.7369224390666     534.9524938011100
 3100.0       0.7378566922709     534.5605367315155
 3150.0       0.7387896251014     534.1681479875062
 3200.0       0.7397209033889     533.7740247759024
 3250.0       0.7406545255866     533.3783920900227
 3300.0       0.7415879328064     532.9825361583452
 3350.0       0.7425196610533     532.5851685189948
 3400.0       0.7434521178141     532.1865001483760
 3450.0       0.7443857654899     531.7868007444958
 3500.0       0.7453181070257     531.3864663454079
 3550.0       0.7462489121539     530.9841790916890
 3600.0       0.7471830996157     530.5805965901611
 3650.0       0.7481160414586     530.1770120185558
 3700.0       0.7490473812429     529.7718231329177
 3750.0       0.7499813071670     529.3654091044572
 3800.0       0.7509140423137     528.9584694641662
 3850.0       0.7518456671702     528.5502560852723
