# T (K)               Helmholtz Free Energy (Ry.)
# V=  41.1649000000000
    0.00       0.6728523065384
   50.00       0.6719095717478
  100.00       0.6698673554769
  150.00       0.6673406491682
  200.00       0.6645009675424
  250.00       0.6614203388118
  300.00       0.6581546659666
  350.00       0.6547420714146
  400.00       0.6511876670832
  450.00       0.6475172776856
  500.00       0.6437351162061
  550.00       0.6398700722626
  600.00       0.6359203138787
  650.00       0.6318916018261
  700.00       0.6277918488523
  750.00       0.6236259789509
  800.00       0.6193982917133
  850.00       0.6151140304859
  900.00       0.6107780511101
  950.00       0.6063901792372
 1000.00       0.6019830349408
 1050.00       0.5974934567640
 1100.00       0.5929564575109
 1150.00       0.5883777152240
 1200.00       0.5837617339406
 1250.00       0.5791113921643
 1300.00       0.5744246017193
 1350.00       0.5697018512038
 1400.00       0.5649447010354
 1450.00       0.5601542307844
 1500.00       0.5553316644380
 1550.00       0.5504780084249
 1600.00       0.5455943097274
 1650.00       0.5406814709892
 1700.00       0.5357404494409
 1750.00       0.5307719875213
 1800.00       0.5257769207927
 1850.00       0.5207559552102
 1900.00       0.5157098563714
 1950.00       0.5106391896589
 2000.00       0.5055446737776
 2050.00       0.5004268032429
 2100.00       0.4952862481365
 2150.00       0.4901234957873
 2200.00       0.4849391498348
 2250.00       0.4797335525490
 2300.00       0.4745072687794
 2350.00       0.4692607500690
 2400.00       0.4639943999591
 2450.00       0.4587086196178
 2500.00       0.4534038617817
 2550.00       0.4480804798407
 2600.00       0.4427388131368
 2650.00       0.4373791980971
 2700.00       0.4320020471165
 2750.00       0.4266076329310
 2800.00       0.4211962661308
 2850.00       0.4157682751908
 2900.00       0.4103239471207
 2950.00       0.4048635642449
 3000.00       0.3993873256645
 3050.00       0.3938956298592
 3100.00       0.3883886620345
 3150.00       0.3828666336483
 3200.00       0.3773298402768
 3250.00       0.3717785021268
 3300.00       0.3662127936009
 3350.00       0.3606329827736
 3400.00       0.3550392771065
 3450.00       0.3494318658506
 3500.00       0.3438109330686
 3550.00       0.3381767267170
 3600.00       0.3325294087967
 3650.00       0.3268691085684
 3700.00       0.3211960757393
 3750.00       0.3155104520449
 3800.00       0.3098123867445
 3850.00       0.3041020774644
 3900.00       0.2983796789702
 3950.00       0.2926453264713
 4000.00       0.2868991861672
 4050.00       0.2811413986939
 4100.00       0.2753721119551
 4150.00       0.2695914577257
 4200.00       0.2637995761798
 4250.00       0.2579966222824
 4300.00       0.2521826892127
 4350.00       0.2463579307247
 4400.00       0.2405224691919
 4450.00       0.2346764143355
 4500.00       0.2288198912057
 4550.00       0.2229530353808
 4600.00       0.2170759299182
 4650.00       0.2111886879701
 4700.00       0.2052914388897
 4750.00       0.1993843011702
 4800.00       0.1934673114812
 4850.00       0.1875406456673
 4900.00       0.1816043757611
 4950.00       0.1756585900540
 5000.00       0.1697033991326
# V=  41.0980979797980
    0.00       0.6753277457305
   50.00       0.6743852875211
  100.00       0.6723432306305
  150.00       0.6698165682052
  200.00       0.6669766531850
  250.00       0.6638961403578
  300.00       0.6606303990809
  350.00       0.6572169503286
  400.00       0.6536625736692
  450.00       0.6499915576493
  500.00       0.6462099370643
  550.00       0.6423442878280
  600.00       0.6383939729979
  650.00       0.6343646581174
  700.00       0.6302642089769
  750.00       0.6260975245628
  800.00       0.6218689843778
  850.00       0.6175836399222
  900.00       0.6132461896923
  950.00       0.6088567784361
 1000.00       0.6044441474987
 1050.00       0.5999537797736
 1100.00       0.5954163077477
 1150.00       0.5908371614708
 1200.00       0.5862202540053
 1250.00       0.5815683652782
 1300.00       0.5768799130429
 1350.00       0.5721554993352
 1400.00       0.5673966599979
 1450.00       0.5626044925710
 1500.00       0.5577802113821
 1550.00       0.5529248347891
 1600.00       0.5480394010298
 1650.00       0.5431248193908
 1700.00       0.5381820373684
 1750.00       0.5332118092087
 1800.00       0.5282149640083
 1850.00       0.5231922121375
 1900.00       0.5181443116193
 1950.00       0.5130718398327
 2000.00       0.5079755046838
 2050.00       0.5028558137407
 2100.00       0.4977134243028
 2150.00       0.4925488313241
 2200.00       0.4873626271776
 2250.00       0.4821551730896
 2300.00       0.4769270227113
 2350.00       0.4716786269214
 2400.00       0.4664103931999
 2450.00       0.4611227242573
 2500.00       0.4558160663962
 2550.00       0.4504907760997
 2600.00       0.4451471958961
 2650.00       0.4397856645776
 2700.00       0.4344065851652
 2750.00       0.4290102375456
 2800.00       0.4235969322322
 2850.00       0.4181669948337
 2900.00       0.4127207132012
 2950.00       0.4072583696091
 3000.00       0.4017801719852
 3050.00       0.3962865029158
 3100.00       0.3907775558177
 3150.00       0.3852535463805
 3200.00       0.3797147635923
 3250.00       0.3741614287730
 3300.00       0.3685937228585
 3350.00       0.3630119073640
 3400.00       0.3574161908520
 3450.00       0.3518067638974
 3500.00       0.3461838125785
 3550.00       0.3405475781563
 3600.00       0.3348982259768
 3650.00       0.3292358918443
 3700.00       0.3235608173346
 3750.00       0.3178731461063
 3800.00       0.3121730309575
 3850.00       0.3064606657143
 3900.00       0.3007362054430
 3950.00       0.2949997877967
 4000.00       0.2892515771254
 4050.00       0.2834917150798
 4100.00       0.2777203492369
 4150.00       0.2719376121347
 4200.00       0.2661436436508
 4250.00       0.2603385964989
 4300.00       0.2545225682646
 4350.00       0.2486957093999
 4400.00       0.2428581428587
 4450.00       0.2370099797813
 4500.00       0.2311513444893
 4550.00       0.2252823702027
 4600.00       0.2194031435368
 4650.00       0.2135137779812
 4700.00       0.2076144002313
 4750.00       0.2017051272625
 4800.00       0.1957860042049
 4850.00       0.1898571977816
 4900.00       0.1839187835007
 4950.00       0.1779708508833
 5000.00       0.1720135088976
# V=  41.0312959595960
    0.00       0.6778145964054
   50.00       0.6768724315517
  100.00       0.6748305588173
  150.00       0.6723039652340
  200.00       0.6694638505910
  250.00       0.6663834698608
  300.00       0.6631176825073
  350.00       0.6597034340853
  400.00       0.6561491009301
  450.00       0.6524774996659
  500.00       0.6486964113891
  550.00       0.6448301959761
  600.00       0.6408793610464
  650.00       0.6368494805706
  700.00       0.6327483757412
  750.00       0.6285809215550
  800.00       0.6243515742027
  850.00       0.6200652014317
  900.00       0.6157263510970
  950.00       0.6113354734573
 1000.00       0.6069175942648
 1050.00       0.6024264774639
 1100.00       0.5978885592736
 1150.00       0.5933090325952
 1200.00       0.5886912439340
 1250.00       0.5840378788994
 1300.00       0.5793478399762
 1350.00       0.5746218378626
 1400.00       0.5698613848970
 1450.00       0.5650675958218
 1500.00       0.5602416757348
 1550.00       0.5553846544349
 1600.00       0.5504975617850
 1650.00       0.5455813134496
 1700.00       0.5406368476077
 1750.00       0.5356649298259
 1800.00       0.5306663830161
 1850.00       0.5256419217847
 1900.00       0.5205922969023
 1950.00       0.5155180972507
 2000.00       0.5104200203950
 2050.00       0.5052985864177
 2100.00       0.5001544403746
 2150.00       0.4949880845317
 2200.00       0.4898001004742
 2250.00       0.4845908675913
 2300.00       0.4793609288153
 2350.00       0.4741107343853
 2400.00       0.4688406955699
 2450.00       0.4635512165525
 2500.00       0.4582427374808
 2550.00       0.4529156178003
 2600.00       0.4475702031037
 2650.00       0.4422068344432
 2700.00       0.4368259058702
 2750.00       0.4314277041169
 2800.00       0.4260125396363
 2850.00       0.4205807352892
 2900.00       0.4151325797341
 2950.00       0.4096683552023
 3000.00       0.4041882780842
 3050.00       0.3986927157359
 3100.00       0.3931818694451
 3150.00       0.3876559589636
 3200.00       0.3821152669627
 3250.00       0.3765600158381
 3300.00       0.3709903927802
 3350.00       0.3654066530303
 3400.00       0.3598090061943
 3450.00       0.3541976441307
 3500.00       0.3485727548464
 3550.00       0.3429345731930
 3600.00       0.3372832677173
 3650.00       0.3316189804966
 3700.00       0.3259419453199
 3750.00       0.3202523076880
 3800.00       0.3145502237918
 3850.00       0.3088358838194
 3900.00       0.3031094431249
 3950.00       0.2973710417081
 4000.00       0.2916208421423
 4050.00       0.2858589870563
 4100.00       0.2800856237115
 4150.00       0.2743008853845
 4200.00       0.2685049116694
 4250.00       0.2626978531174
 4300.00       0.2568798115428
 4350.00       0.2510509342370
 4400.00       0.2452113447052
 4450.00       0.2393611554516
 4500.00       0.2335004901006
 4550.00       0.2276294796157
 4600.00       0.2217482140266
 4650.00       0.2158568071367
 4700.00       0.2099553830999
 4750.00       0.2040440574403
 4800.00       0.1981228833933
 4850.00       0.1921920189452
 4900.00       0.1862515429356
 4950.00       0.1803015460646
 5000.00       0.1743421357486
# V=  40.9644939393939
    0.00       0.6803129057098
   50.00       0.6793710510340
  100.00       0.6773293872823
  150.00       0.6748028875588
  200.00       0.6719626070383
  250.00       0.6688823747598
  300.00       0.6656165637853
  350.00       0.6622015699929
  400.00       0.6586472963485
  450.00       0.6549751511276
  500.00       0.6511945870055
  550.00       0.6473278444690
  600.00       0.6433765257542
  650.00       0.6393461168756
  700.00       0.6352443967625
  750.00       0.6310762174288
  800.00       0.6268461085634
  850.00       0.6225587621699
  900.00       0.6182185820955
  950.00       0.6138263106655
 1000.00       0.6094034194755
 1050.00       0.6049115940054
 1100.00       0.6003732563381
 1150.00       0.5957933729584
 1200.00       0.5911747479769
 1250.00       0.5865199769013
 1300.00       0.5818284259695
 1350.00       0.5771009098172
 1400.00       0.5723389183378
 1450.00       0.5675435827165
 1500.00       0.5627160992468
 1550.00       0.5578575086849
 1600.00       0.5529688328855
 1650.00       0.5480509936281
 1700.00       0.5431049201868
 1750.00       0.5381313889677
 1800.00       0.5331312169754
 1850.00       0.5281051228752
 1900.00       0.5230538505046
 1950.00       0.5179779997597
 2000.00       0.5128782583171
 2050.00       0.5077551582414
 2100.00       0.5026093328778
 2150.00       0.4974412914942
 2200.00       0.4922516053619
 2250.00       0.4870406712480
 2300.00       0.4818090218401
 2350.00       0.4765571067625
 2400.00       0.4712853409231
 2450.00       0.4659941299100
 2500.00       0.4606839079922
 2550.00       0.4553550374480
 2600.00       0.4500078668139
 2650.00       0.4446427392983
 2700.00       0.4392600403823
 2750.00       0.4338600633425
 2800.00       0.4284431185871
 2850.00       0.4230095263466
 2900.00       0.4175595760527
 2950.00       0.4120935499009
 3000.00       0.4066116723836
 3050.00       0.4011142962826
 3100.00       0.3956016304206
 3150.00       0.3900738984433
 3200.00       0.3845313769737
 3250.00       0.3789742894465
 3300.00       0.3734028290305
 3350.00       0.3678172449754
 3400.00       0.3622177478742
 3450.00       0.3566045308284
 3500.00       0.3509777836881
 3550.00       0.3453377351780
 3600.00       0.3396845569033
 3650.00       0.3340183969458
 3700.00       0.3283394816501
 3750.00       0.3226479582780
 3800.00       0.3169439862689
 3850.00       0.3112277523336
 3900.00       0.3054994121015
 3950.00       0.2997591078223
 4000.00       0.2940070003655
 4050.00       0.2882432333016
 4100.00       0.2824679535867
 4150.00       0.2766812952125
 4200.00       0.2708833975020
 4250.00       0.2650744089323
 4300.00       0.2592544353701
 4350.00       0.2534236210858
 4400.00       0.2475820901080
 4450.00       0.2417299562496
 4500.00       0.2358673424691
 4550.00       0.2299943775739
 4600.00       0.2241111548662
 4650.00       0.2182177884403
 4700.00       0.2123144000233
 4750.00       0.2064011037538
 4800.00       0.2004779606211
 4850.00       0.1945451202555
 4900.00       0.1886026646850
 4950.00       0.1826506857393
 5000.00       0.1766892893485
# V=  40.8976919191919
    0.00       0.6828227209588
   50.00       0.6818811933309
  100.00       0.6798397634384
  150.00       0.6773133826510
  200.00       0.6744729699695
  250.00       0.6713929026598
  300.00       0.6681270906208
  350.00       0.6647114055188
  400.00       0.6611572075681
  450.00       0.6574845595836
  500.00       0.6537045119029
  550.00       0.6498372812300
  600.00       0.6458855150097
  650.00       0.6418546148775
  700.00       0.6377523198091
  750.00       0.6335834598317
  800.00       0.6293526349768
  850.00       0.6250643694265
  900.00       0.6207229295827
  950.00       0.6163293365375
 1000.00       0.6119016674291
 1050.00       0.6074091736267
 1100.00       0.6028704432485
 1150.00       0.5982902269794
 1200.00       0.5936708104376
 1250.00       0.5890147031993
 1300.00       0.5843217145036
 1350.00       0.5795927582492
 1400.00       0.5748293029324
 1450.00       0.5700324954300
 1500.00       0.5652035236520
 1550.00       0.5603434388332
 1600.00       0.5554532551831
 1650.00       0.5505339003359
 1700.00       0.5455862950692
 1750.00       0.5406112261518
 1800.00       0.5356095049566
 1850.00       0.5305818540317
 1900.00       0.5255290105976
 1950.00       0.5204515850810
 2000.00       0.5153502557184
 2050.00       0.5102255660294
 2100.00       0.5050781381759
 2150.00       0.4999084881212
 2200.00       0.4947171772914
 2250.00       0.4895046190547
 2300.00       0.4842713363232
 2350.00       0.4790177781308
 2400.00       0.4737443628774
 2450.00       0.4684514974881
 2500.00       0.4631396106262
 2550.00       0.4578090672750
 2600.00       0.4524602187949
 2650.00       0.4470934104484
 2700.00       0.4417090195413
 2750.00       0.4363073455963
 2800.00       0.4308886989924
 2850.00       0.4254533974460
 2900.00       0.4200017311286
 2950.00       0.4145339822070
 3000.00       0.4090503829183
 3050.00       0.4035512721198
 3100.00       0.3980368658361
 3150.00       0.3925073914404
 3200.00       0.3869631197732
 3250.00       0.3814042752718
 3300.00       0.3758310568102
 3350.00       0.3702437079262
 3400.00       0.3646424401434
 3450.00       0.3590274477670
 3500.00       0.3533989224046
 3550.00       0.3477570869349
 3600.00       0.3421021158793
 3650.00       0.3364341630599
 3700.00       0.3307534477141
 3750.00       0.3250601187854
 3800.00       0.3193543388188
 3850.00       0.3136362912067
 3900.00       0.3079061318409
 3950.00       0.3021640051260
 4000.00       0.2964100702995
 4050.00       0.2906444718372
 4100.00       0.2848673564009
 4150.00       0.2790788586737
 4200.00       0.2732791177196
 4250.00       0.2674682800291
 4300.00       0.2616464553471
 4350.00       0.2558137850615
 4400.00       0.2499703936958
 4450.00       0.2441163963177
 4500.00       0.2382519152500
 4550.00       0.2323770772445
 4600.00       0.2264919787344
 4650.00       0.2205967340824
 4700.00       0.2146914627030
 4750.00       0.2087762774138
 4800.00       0.2028512466104
 4850.00       0.1969165119437
 4900.00       0.1909721584891
 4950.00       0.1850182791564
 5000.00       0.1790549784546
# V=  40.8308898989899
    0.00       0.6853440896367
   50.00       0.6844029059739
  100.00       0.6823617348664
  150.00       0.6798354981490
  200.00       0.6769949869915
  250.00       0.6739151013320
  300.00       0.6706493108860
  350.00       0.6672329882892
  400.00       0.6636788823932
  450.00       0.6600057727395
  500.00       0.6562262342350
  550.00       0.6523585543431
  600.00       0.6484063768588
  650.00       0.6443750225758
  700.00       0.6402721928002
  750.00       0.6361026965573
  800.00       0.6318712011006
  850.00       0.6275820706248
  900.00       0.6232394405758
  950.00       0.6188445976609
 1000.00       0.6144123824834
 1050.00       0.6099192606124
 1100.00       0.6053801643676
 1150.00       0.6007996391329
 1200.00       0.5961794756706
 1250.00       0.5915221017492
 1300.00       0.5868277490877
 1350.00       0.5820974262251
 1400.00       0.5773325812973
 1450.00       0.5725343761294
 1500.00       0.5677039906642
 1550.00       0.5628424861421
 1600.00       0.5579508694854
 1650.00       0.5530300739264
 1700.00       0.5480810121494
 1750.00       0.5431044808154
 1800.00       0.5381012859366
 1850.00       0.5330721537711
 1900.00       0.5280178152343
 1950.00       0.5229388908057
 2000.00       0.5178360497243
 2050.00       0.5127098464441
 2100.00       0.5075608924649
 2150.00       0.5023897101424
 2200.00       0.4971968515207
 2250.00       0.4919827458010
 2300.00       0.4867479065841
 2350.00       0.4814927823377
 2400.00       0.4762177948077
 2450.00       0.4709233521892
 2500.00       0.4656098778103
 2550.00       0.4602777392321
 2600.00       0.4549272905212
 2650.00       0.4495588788926
 2700.00       0.4441728738674
 2750.00       0.4387695809201
 2800.00       0.4333493104152
 2850.00       0.4279123776703
 2900.00       0.4224590735634
 2950.00       0.4169896802393
 3000.00       0.4115044373273
 3050.00       0.4060036704023
 3100.00       0.4004876023613
 3150.00       0.3949564641408
 3200.00       0.3894105210615
 3250.00       0.3838499985270
 3300.00       0.3782751008470
 3350.00       0.3726860661228
 3400.00       0.3670831067543
 3450.00       0.3614664182101
 3500.00       0.3558361937716
 3550.00       0.3501926507483
 3600.00       0.3445359664385
 3650.00       0.3388663001420
 3700.00       0.3331838643232
 3750.00       0.3274888095286
 3800.00       0.3217813012674
 3850.00       0.3160615197707
 3900.00       0.3103296211808
 3950.00       0.3045857519621
 4000.00       0.2988300697916
 4050.00       0.2930627200147
 4100.00       0.2872838490092
 4150.00       0.2814935921263
 4200.00       0.2756920881835
 4250.00       0.2698794817707
 4300.00       0.2640558863388
 4350.00       0.2582214405299
 4400.00       0.2523762693348
 4450.00       0.2465204890222
 4500.00       0.2406542213097
 4550.00       0.2347775909918
 4600.00       0.2288906974939
 4650.00       0.2229936554245
 4700.00       0.2170865819977
 4750.00       0.2111695887748
 4800.00       0.2052427512137
 4850.00       0.1993062033583
 4900.00       0.1933600331918
 4950.00       0.1874043346555
 5000.00       0.1814392109013
# V=  40.7640878787879
    0.00       0.6878770593960
   50.00       0.6869362366626
  100.00       0.6848953493142
  150.00       0.6823692818581
  200.00       0.6795287058753
  250.00       0.6764490187133
  300.00       0.6731832726190
  350.00       0.6697663660888
  400.00       0.6662123687884
  450.00       0.6625388384567
  500.00       0.6587598023193
  550.00       0.6548917120521
  600.00       0.6509391595046
  650.00       0.6469073881242
  700.00       0.6428040638052
  750.00       0.6386339755441
  800.00       0.6344018547322
  850.00       0.6301119133205
  900.00       0.6257681622133
  950.00       0.6213721407330
 1000.00       0.6169356090543
 1050.00       0.6124418993010
 1100.00       0.6079024641116
 1150.00       0.6033216539475
 1200.00       0.5987007880794
 1250.00       0.5940422165444
 1300.00       0.5893465732563
 1350.00       0.5846149568249
 1400.00       0.5798487960501
 1450.00       0.5750492669710
 1500.00       0.5702175419739
 1550.00       0.5653546918377
