# T (K)               Helmholtz Free Energy (Ry.)
# V=  41.1649000000000
    0.00       0.6729407600794
   50.00       0.6720106432627
  100.00       0.6699908036174
  150.00       0.6674917124204
  200.00       0.6646796582331
  250.00       0.6616345099947
  300.00       0.6584034774118
  350.00       0.6550178060833
  400.00       0.6514997233994
  450.00       0.6478658578309
  500.00       0.6441291209929
  550.00       0.6402998301251
  600.00       0.6363864194615
  650.00       0.6323959130782
  700.00       0.6283342515326
  750.00       0.6242065247870
  800.00       0.6200171427956
  850.00       0.6157699633127
  900.00       0.6114683895447
  950.00       0.6071154460503
 1000.00       0.6027138386270
 1050.00       0.5982660021963
 1100.00       0.5937741395535
 1150.00       0.5892402530596
 1200.00       0.5846661708145
 1250.00       0.5800535684620
 1300.00       0.5754039875014
 1350.00       0.5707188507799
 1400.00       0.5659994756859
 1450.00       0.5612470854572
 1500.00       0.5564628189273
 1550.00       0.5516477389713
 1600.00       0.5468028398611
 1650.00       0.5419290537006
 1700.00       0.5370272560805
 1750.00       0.5320982710669
 1800.00       0.5271428756202
 1850.00       0.5221618035222
 1900.00       0.5171557488782
 1950.00       0.5121253692512
 2000.00       0.5070712884733
 2050.00       0.5019940991770
 2100.00       0.4968943650783
 2150.00       0.4917726230433
 2200.00       0.4866293849618
 2250.00       0.4814651394508
 2300.00       0.4762803534065
 2350.00       0.4710754734210
 2400.00       0.4658509270792
 2450.00       0.4606071241463
 2500.00       0.4553444576596
 2550.00       0.4500633049325
 2600.00       0.4447640284789
 2650.00       0.4394469768680
 2700.00       0.4341124855135
 2750.00       0.4287608774045
 2800.00       0.4233924637832
 2850.00       0.4180075447749
 2900.00       0.4126064099725
 2950.00       0.4071893389818
 3000.00       0.4017566019294
 3050.00       0.3963084599364
 3100.00       0.3908451655618
 3150.00       0.3853669632164
 3200.00       0.3798740895514
 3250.00       0.3743667738217
 3300.00       0.3688452382276
 3350.00       0.3633096982352
 3400.00       0.3577603628784
 3450.00       0.3521974350425
 3500.00       0.3466211117313
 3550.00       0.3410315843197
 3600.00       0.3354290387912
 3650.00       0.3298136559626
 3700.00       0.3241856116965
 3750.00       0.3185450771022
 3800.00       0.3128922187256
 3850.00       0.3072271987295
 3900.00       0.3015501750644
 3950.00       0.2958613016305
 4000.00       0.2901607284317
 4050.00       0.2844486017212
 4100.00       0.2787250641411
 4150.00       0.2729902548541
 4200.00       0.2672443096694
 4250.00       0.2614873611623
 4300.00       0.2557195387888
 4350.00       0.2499409689938
 4400.00       0.2441517753156
 4450.00       0.2383520784842
 4500.00       0.2325419965169
 4550.00       0.2267216448081
 4600.00       0.2208911362157
 4650.00       0.2150505811443
 4700.00       0.2092000876240
 4750.00       0.2033397613864
 4800.00       0.1974697059369
 4850.00       0.1915900226245
 4900.00       0.1857008107085
 4950.00       0.1798021674223
 5000.00       0.1738941880350
# V=  40.4226000000000
    0.00       0.7008907253854
   50.00       0.6999413807191
  100.00       0.6978792788718
  150.00       0.6953274238805
  200.00       0.6924557201736
  250.00       0.6893457878132
  300.00       0.6860458743116
  350.00       0.6825879129689
  400.00       0.6789946207147
  450.00       0.6752829923960
  500.00       0.6714662241857
  550.00       0.6675548607463
  600.00       0.6635575222520
  650.00       0.6594813876463
  700.00       0.6553325284746
  750.00       0.6511161469382
  800.00       0.6468367502403
  850.00       0.6424982812098
  900.00       0.6381042181066
  950.00       0.6336576521937
 1000.00       0.6291613489440
 1050.00       0.6246177969819
 1100.00       0.6200292476862
 1150.00       0.6153977475818
 1200.00       0.6107251650892
 1250.00       0.6060132128106
 1300.00       0.6012634662456
 1350.00       0.5964773796246
 1400.00       0.5916562993935
 1450.00       0.5868014757711
 1500.00       0.5819140727102
 1550.00       0.5769951765301
 1600.00       0.5720458034335
 1650.00       0.5670669060844
 1700.00       0.5620593793866
 1750.00       0.5570240655834
 1800.00       0.5519617587730
 1850.00       0.5468732089227
 1900.00       0.5417591254484
 1950.00       0.5366201804175
 2000.00       0.5314570114225
 2050.00       0.5262702241680
 2100.00       0.5210603948048
 2150.00       0.5158280720409
 2200.00       0.5105737790577
 2250.00       0.5052980152499
 2300.00       0.5000012578127
 2350.00       0.4946839631893
 2400.00       0.4893465683962
 2450.00       0.4839894922373
 2500.00       0.4786131364199
 2550.00       0.4732178865798
 2600.00       0.4678041132277
 2650.00       0.4623721726217
 2700.00       0.4569224075739
 2750.00       0.4514551481982
 2800.00       0.4459707126023
 2850.00       0.4404694075317
 2900.00       0.4349515289673
 2950.00       0.4294173626827
 3000.00       0.4238671847628
 3050.00       0.4183012620888
 3100.00       0.4127198527908
 3150.00       0.4071232066710
 3200.00       0.4015115656005
 3250.00       0.3958851638915
 3300.00       0.3902442286455
 3350.00       0.3845889800816
 3400.00       0.3789196318447
 3450.00       0.3732363912953
 3500.00       0.3675394597830
 3550.00       0.3618290329041
 3600.00       0.3561053007445
 3650.00       0.3503684481098
 3700.00       0.3446186547418
 3750.00       0.3388560955241
 3800.00       0.3330809406764
 3850.00       0.3272933559387
 3900.00       0.3214935027457
 3950.00       0.3156815383923
 4000.00       0.3098576161913
 4050.00       0.3040218856222
 4100.00       0.2981744924734
 4150.00       0.2923155789774
 4200.00       0.2864452839392
 4250.00       0.2805637428586
 4300.00       0.2746710880470
 4350.00       0.2687674487387
 4400.00       0.2628529511970
 4450.00       0.2569277188152
 4500.00       0.2509918722138
 4550.00       0.2450455293324
 4600.00       0.2390888055189
 4650.00       0.2331218136129
 4700.00       0.2271446640278
 4750.00       0.2211574648271
 4800.00       0.2151603217998
 4850.00       0.2091533385303
 4900.00       0.2031366164674
 4950.00       0.1971102549895
 5000.00       0.1910743514671
# V=  39.7477000000000
    0.00       0.7282779094293
   50.00       0.7273405894452
  100.00       0.7252946701866
  150.00       0.7227590816621
  200.00       0.7199036544005
  250.00       0.7168099961584
  300.00       0.7135263515348
  350.00       0.7100846532255
  400.00       0.7065076182458
  450.00       0.7028122417420
  500.00       0.6990117202396
  550.00       0.6951165987488
  600.00       0.6911354977674
  650.00       0.6870755965330
  700.00       0.6829429668549
  750.00       0.6787428111715
  800.00       0.6744796368987
  850.00       0.6701573870567
  900.00       0.6657795400776
  950.00       0.6613491873807
 1000.00       0.6568690945804
 1050.00       0.6523417504303
 1100.00       0.6477694064273
 1150.00       0.6431541092044
 1200.00       0.6384977272818
 1250.00       0.6338019733536
 1300.00       0.6290684230047
 1350.00       0.6242985305441
 1400.00       0.6194936424912
 1450.00       0.6146550091334
 1500.00       0.6097837944874
 1550.00       0.6048810849323
 1600.00       0.5999478967272
 1650.00       0.5949851825886
 1700.00       0.5899938374702
 1750.00       0.5849747036622
 1800.00       0.5799285753072
 1850.00       0.5748562024143
 1900.00       0.5697582944393
 1950.00       0.5646355234870
 2000.00       0.5594885271859
 2050.00       0.5543179112748
 2100.00       0.5491242519367
 2150.00       0.5439080979107
 2200.00       0.5386699724075
 2250.00       0.5334103748503
 2300.00       0.5281297824611
 2350.00       0.5228286517089
 2400.00       0.5175074196350
 2450.00       0.5121665050672
 2500.00       0.5068063097353
 2550.00       0.5014272192972
 2600.00       0.4960296042846
 2650.00       0.4906138209757
 2700.00       0.4851802122023
 2750.00       0.4797291080969
 2800.00       0.4742608267854
 2850.00       0.4687756750307
 2900.00       0.4632739488306
 2950.00       0.4577559339750
 3000.00       0.4522219065645
 3050.00       0.4466721334956
 3100.00       0.4411068729129
 3150.00       0.4355263746331
 3200.00       0.4299308805411
 3250.00       0.4243206249623
 3300.00       0.4186958350112
 3350.00       0.4130567309197
 3400.00       0.4074035263447
 3450.00       0.4017364286586
 3500.00       0.3960556392226
 3550.00       0.3903613536440
 3600.00       0.3846537620198
 3650.00       0.3789330491660
 3700.00       0.3731993948347
 3750.00       0.3674529739196
 3800.00       0.3616939566502
 3850.00       0.3559225087758
 3900.00       0.3501387917404
 3950.00       0.3443429628480
 4000.00       0.3385351754201
 4050.00       0.3327155789448
 4100.00       0.3268843192189
 4150.00       0.3210415384830
 4200.00       0.3151873755499
 4250.00       0.3093219659274
 4300.00       0.3034454419345
 4350.00       0.2975579328128
 4400.00       0.2916595648327
 4450.00       0.2857504613949
 4500.00       0.2798307431266
 4550.00       0.2739005279743
 4600.00       0.2679599312923
 4650.00       0.2620090659269
 4700.00       0.2560480422977
 4750.00       0.2500769684746
 4800.00       0.2440959502524
 4850.00       0.2381050912216
 4900.00       0.2321044928368
 4950.00       0.2260942544821
 5000.00       0.2200744735336
# V=  39.0729000000000
    0.00       0.7551711070715
   50.00       0.7542363658291
  100.00       0.7522006828866
  150.00       0.7496789516084
  200.00       0.7468397183007
  250.00       0.7437639882600
  300.00       0.7404996527092
  350.00       0.7370784112951
  400.00       0.7335228155725
  450.00       0.7298497370533
  500.00       0.7260722763396
  550.00       0.7222009018342
  600.00       0.7182441714340
  650.00       0.7142092122572
  700.00       0.7101020520441
  750.00       0.7059278554802
  800.00       0.7016910972771
  850.00       0.6973956918490
  900.00       0.6930450923951
  950.00       0.6886423679107
 1000.00       0.6841902639513
 1050.00       0.6796912512201
 1100.00       0.6751475648856
 1150.00       0.6705612367386
 1200.00       0.6659341217493
 1250.00       0.6612679201924
 1300.00       0.6565641962273
 1350.00       0.6518243936181
 1400.00       0.6470498491204
 1450.00       0.6422418039561
 1500.00       0.6374014137019
 1550.00       0.6325297568600
 1600.00       0.6276278423213
 1650.00       0.6226966158946
 1700.00       0.6177369660452
 1750.00       0.6127497289562
 1800.00       0.6077356930127
 1850.00       0.6026956027863
 1900.00       0.5976301625890
 1950.00       0.5925400396530
 2000.00       0.5874258669841
 2050.00       0.5822882459295
 2100.00       0.5771277484950
 2150.00       0.5719449194415
 2200.00       0.5667402781866
 2250.00       0.5615143205328
 2300.00       0.5562675202423
 2350.00       0.5510003304751
 2400.00       0.5457131851039
 2450.00       0.5404064999202
 2500.00       0.5350806737416
 2550.00       0.5297360894300
 2600.00       0.5243731148310
 2650.00       0.5189921036399
 2700.00       0.5135933962033
 2750.00       0.5081773202603
 2800.00       0.5027441916306
 2850.00       0.4972943148532
 2900.00       0.4918279837803
 2950.00       0.4863454821297
 3000.00       0.4808470840007
 3050.00       0.4753330543548
 3100.00       0.4698036494654
 3150.00       0.4642591173380
 3200.00       0.4586996981042
 3250.00       0.4531256243905
 3300.00       0.4475371216652
 3350.00       0.4419344085634
 3400.00       0.4363176971934
 3450.00       0.4306871934242
 3500.00       0.4250430971572
 3550.00       0.4193856025819
 3600.00       0.4137148984171
 3650.00       0.4080311681390
 3700.00       0.4023345901967
 3750.00       0.3966253382161
 3800.00       0.3909035811926
 3850.00       0.3851694836740
 3900.00       0.3794232059338
 3950.00       0.3736649041360
 4000.00       0.3678947304903
 4050.00       0.3621128334013
 4100.00       0.3563193576089
 4150.00       0.3505144443226
 4200.00       0.3446982313489
 4250.00       0.3388708532132
 4300.00       0.3330324412753
 4350.00       0.3271831238401
 4400.00       0.3213230262625
 4450.00       0.3154522710486
 4500.00       0.3095709779512
 4550.00       0.3036792640619
 4600.00       0.2977772438987
 4650.00       0.2918650294899
 4700.00       0.2859427304545
 4750.00       0.2800104540792
 4800.00       0.2740683053917
 4850.00       0.2681163872317
 4900.00       0.2621548003184
 4950.00       0.2561836433153
 5000.00       0.2502030128926
# V=  38.4656000000000
    0.00       0.7816760446558
   50.00       0.7807617154460
  100.00       0.7787537788305
  150.00       0.7762602797497
  200.00       0.7734495336874
  250.00       0.7704024672694
  300.00       0.7671669312829
  350.00       0.7637746004558
  400.00       0.7602480093341
  450.00       0.7566040170328
  500.00       0.7528557146952
  550.00       0.7490135632583
  600.00       0.7450861145703
  650.00       0.7410804907460
  700.00       0.7370027153159
  750.00       0.7328579493735
  800.00       0.7286506645281
  850.00       0.7243847724877
  900.00       0.7200637240690
  950.00       0.7156905861540
 1000.00       0.7112681024106
 1050.00       0.7067987418454
 1100.00       0.7022847380939
 1150.00       0.6977281215547
 1200.00       0.6931307459281
 1250.00       0.6884943103254
 1300.00       0.6838203778370
 1350.00       0.6791103912400
 1400.00       0.6743656863777
 1450.00       0.6695875036241
 1500.00       0.6647769977679
 1550.00       0.6599352465755
 1600.00       0.6550632582498
 1650.00       0.6501619779551
 1700.00       0.6452322935510
 1750.00       0.6402750406511
 1800.00       0.6352910071035
 1850.00       0.6302809369726
 1900.00       0.6252455340910
 1950.00       0.6201854652367
 2000.00       0.6151013629847
 2050.00       0.6099938282728
 2100.00       0.6048634327178
 2150.00       0.5997107207098
 2200.00       0.5945362113132
 2250.00       0.5893403999932
 2300.00       0.5841237601898
 2350.00       0.5788867447549
 2400.00       0.5736297872661
 2450.00       0.5683533032322
 2500.00       0.5630576911997
 2550.00       0.5577433337702
 2600.00       0.5524105985393
 2650.00       0.5470598389619
 2700.00       0.5416913951532
 2750.00       0.5363055946296
 2800.00       0.5309027529962
 2850.00       0.5254831745851
 2900.00       0.5200471530487
 2950.00       0.5145949719120
 3000.00       0.5091269050882
 3050.00       0.5036432173588
 3100.00       0.4981441648229
 3150.00       0.4926299953177
 3200.00       0.4871009488115
 3250.00       0.4815572577729
 3300.00       0.4759991475170
 3350.00       0.4704268365305
 3400.00       0.4648405367775
 3450.00       0.4592404539871
 3500.00       0.4536267879252
 3550.00       0.4479997326491
 3600.00       0.4423594767495
 3650.00       0.4367062035781
 3700.00       0.4310400914629
 3750.00       0.4253613139116
 3800.00       0.4196700398050
 3850.00       0.4139664335791
 3900.00       0.4082506553988
 3950.00       0.4025228613216
 4000.00       0.3967832034543
 4050.00       0.3910318301004
 4100.00       0.3852688859017
 4150.00       0.3794945119717
 4200.00       0.3737088460235
 4250.00       0.3679120224910
 4300.00       0.3621041726449
 4350.00       0.3562854247028
 4400.00       0.3504559039348
 4450.00       0.3446157327636
 4500.00       0.3387650308607
 4550.00       0.3329039152383
 4600.00       0.3270325003366
 4650.00       0.3211508981079
 4700.00       0.3152592180967
 4750.00       0.3093575675168
 4800.00       0.3034460513248
 4850.00       0.2975247722904
 4900.00       0.2915938310645
 4950.00       0.2856533262436
 5000.00       0.2797033544324
# V=  37.9257000000000
    0.00       0.8078314043151
   50.00       0.8069313410453
  100.00       0.8049425781383
  150.00       0.8024683233039
  200.00       0.7996768118673
  250.00       0.7966489607531
  300.00       0.7934326204432
  350.00       0.7900594671133
  400.00       0.7865520369815
  450.00       0.7829271907077
  500.00       0.7791980207836
  550.00       0.7753749893069
  600.00       0.7714666491232
  650.00       0.7674801232084
  700.00       0.7634214358410
  750.00       0.7592957487684
  800.00       0.7551075341758
  850.00       0.7508607042812
  900.00       0.7465587103562
  950.00       0.7422046196903
 1000.00       0.7378011763186
 1050.00       0.7333508495803
 1100.00       0.7288558734131
 1150.00       0.7243182784918
 1200.00       0.7197399187696
 1250.00       0.7151224935905
 1300.00       0.7104675662594
 1350.00       0.7057765797524
 1400.00       0.7010508700966
 1450.00       0.6962916778381
 1500.00       0.6915001579251
 1550.00       0.6866773882738
 1600.00       0.6818243772271
 1650.00       0.6769420700808
 1700.00       0.6720313548182
 1750.00       0.6670930671696
 1800.00       0.6621279950927
 1850.00       0.6571368827563
 1900.00       0.6521204340911
 1950.00       0.6470793159687
 2000.00       0.6420141610524
 2050.00       0.6369255703644
 2100.00       0.6318141156016
 2150.00       0.6266803412306
 2200.00       0.6215247663884
 2250.00       0.6163478866101
 2300.00       0.6111501754021
 2350.00       0.6059320856799
 2400.00       0.6006940510822
 2450.00       0.5954364871762
 2500.00       0.5901597925644
 2550.00       0.5848643499024
 2600.00       0.5795505268376
 2650.00       0.5742186768746
 2700.00       0.5688691401764
 2750.00       0.5635022443058
 2800.00       0.5581183049123
 2850.00       0.5527176263709
 2900.00       0.5473005023754
 2950.00       0.5418672164909
 3000.00       0.5364180426692
 3050.00       0.5309532457291
 3100.00       0.5254730818059
 3150.00       0.5199777987718
 3200.00       0.5144676366290
 3250.00       0.5089428278789
 3300.00       0.5034035978685
 3350.00       0.4978501651152
 3400.00       0.4922827416131
 3450.00       0.4867015331205
 3500.00       0.4811067394314
 3550.00       0.4754985546306
 3600.00       0.4698771673355
 3650.00       0.4642427609237
 3700.00       0.4585955137482
 3750.00       0.4529355993415
 3800.00       0.4472631866081
 3850.00       0.4415784400074
 3900.00       0.4358815197269
 3950.00       0.4301725818462
 4000.00       0.4244517784935
 4050.00       0.4187192579935
 4100.00       0.4129751650082
 4150.00       0.4072196406712
 4200.00       0.4014528227151
 4250.00       0.3956748455928
 4300.00       0.3898858405936
 4350.00       0.3840859359533
 4400.00       0.3782752569596
 4450.00       0.3724539260526
 4500.00       0.3666220629208
 4550.00       0.3607797845928
 4600.00       0.3549272055251
 4650.00       0.3490644376858
 4700.00       0.3431915906351
 4750.00       0.3373087716018
 4800.00       0.3314160855573
 4850.00       0.3255136352861
 4900.00       0.3196015214531
 4950.00       0.3136798426689
 5000.00       0.3077486955519
# V=  37.3858000000000
    0.00       0.8336475458800
   50.00       0.8327532641418
  100.00       0.8307671807400
  150.00       0.8282925588343
  200.00       0.8254986489508
  250.00       0.8224668772723
  300.00       0.8192453993853
  350.00       0.8158660946402
  400.00       0.8123516442732
  450.00       0.8087190176539
  500.00       0.8049813917976
  550.00       0.8011492964038
  600.00       0.7972313396191
  650.00       0.7932346904969
  700.00       0.7891654123004
  750.00       0.7850287001895
  800.00       0.7808290553050
  850.00       0.7765704151998
  900.00       0.7722562534984
  950.00       0.7678896573593
 1000.00       0.7634733885942
 1050.00       0.7590099325409
 1100.00       0.7545015376116
 1150.00       0.7499502476397
 1200.00       0.7453579285922
 1250.00       0.7407262908260
 1300.00       0.7360569077774
 1350.00       0.7313512317745
 1400.00       0.7266106075038
 1450.00       0.7218362835519
 1500.00       0.7170294223530
 1550.00       0.7121911088104
