# T (K)     Thermal pressure (GPa)
# V=  83.6119500000000
    0.0       0.0000000000000
   50.0       0.3329994128578
  100.0       0.8541741651362
  150.0       1.3867690891335
  200.0       1.9241553970272
  250.0       2.4626937866701
  300.0       3.0009104936415
  350.0       3.5410325210415
  400.0       4.0806310597675
  450.0       4.6199672090435
  500.0       5.1598845478480
  550.0       5.6607754164786
  600.0       6.2005229272802
  650.0       6.7400841474519
  700.0       7.2936718688067
  750.0       7.8318147960980
  800.0       8.3713641347605
  850.0       8.9116690802384
  900.0       9.4633546577329
  950.0      10.0041937566622
 1000.0      10.5383905530626
 1050.0      11.0821893563178
 1100.0      11.6241791977747
 1150.0      12.1660732113902
 1200.0      12.7073222999595
 1250.0      13.2461284686028
 1300.0      13.7612447291624
 1350.0      14.3022062362161
 1400.0      14.8478586855430
 1450.0      15.3888197597995
 1500.0      15.9516773528759
 1550.0      16.4819872544452
 1600.0      17.0030616875904
 1650.0      17.5325148466125
 1700.0      18.0729863292011
 1750.0      18.5972416015627
 1800.0      19.1369288963863
 1850.0      19.6764399202443
 1900.0      20.2288337336716
 1950.0      20.7496305967996
 2000.0      21.2838719304856
 2050.0      21.8247003564717
 2100.0      22.3651265913340
 2150.0      22.9074442236196
 2200.0      23.4580851919017
 2250.0      24.0027637984475
 2300.0      24.5461943810792
 2350.0      25.0653606438666
 2400.0      25.6090420774105
 2450.0      26.1528773581234
 2500.0      26.6714115327941
 2550.0      27.2153341323913
 2600.0      27.7580032940258
 2650.0      28.2888027627649
 2700.0      28.8295586911307
 2750.0      29.3461245202956
 2800.0      29.8862441877258
 2850.0      30.4258709399320
 2900.0      30.9636669271582
 2950.0      31.5034915166981
 3000.0      32.0526971415218
 3050.0      32.5970107611744
 3100.0      33.1739330967447
 3150.0      33.7226403759639
 3200.0      34.2296598576321
 3250.0      34.7597518580411
 3300.0      35.3062740991603
 3350.0      35.8338094111317
 3400.0      36.4163292440346
 3450.0      36.9527231968578
 3500.0      37.4598971626419
 3550.0      38.0013577175748
 3600.0      38.5484623077925
 3650.0      39.0753559202819
 3700.0      39.6158020801493
 3750.0      40.1332515669500
 3800.0      40.6785650298818
 3850.0      41.2229788461780
 3900.0      41.7378581216688
 3950.0      42.2809084306822
 4000.0      42.8545634655802
 4050.0      43.4045272613387
 4100.0      43.9032365297492
 4150.0      44.4486116785364
 4200.0      44.9960907935185
 4250.0      45.5541414628281
 4300.0      46.0456079429571
 4350.0      46.5822329768414
 4400.0      47.1261187805075
 4450.0      47.6709804031229
 4500.0      48.1840954664167
 4550.0      48.7307552717295
 4600.0      49.2737067396530
 4650.0      49.8290129681835
 4700.0      50.3691841793150
 4750.0      50.9016381257366
 4800.0      51.4531138537326
 4850.0      51.9811355644715
 4900.0      52.5327407233395
 4950.0      53.0681947385541
 5000.0      53.6052923543582
# V=  83.5052717171717
    0.0       0.0000000000000
   50.0       0.3331193548544
  100.0       0.8548906160504
  150.0       1.3881714583418
  200.0       1.9262005027977
  250.0       2.4653866837477
  300.0       3.0042971156955
  350.0       3.5450470583937
  400.0       4.0853077687276
  450.0       4.6253247243907
  500.0       5.1659023974563
  550.0       5.6691666689774
  600.0       6.2095882982238
  650.0       6.7498345874270
  700.0       7.3035632128637
  750.0       7.8424330516968
  800.0       8.3826744494747
  850.0       8.9236405294804
  900.0       9.4755057749906
  950.0      10.0169832335137
 1000.0      10.5521597277068
 1050.0      11.0964120371394
 1100.0      11.6389920833728
 1150.0      12.1814803602599
 1200.0      12.7233522522205
 1250.0      13.2628891377550
 1300.0      13.7797454228623
 1350.0      14.3213430438639
 1400.0      14.8673643915911
 1450.0      15.4089581500814
 1500.0      15.9714670147420
 1550.0      16.5029094731889
 1600.0      17.0254724920186
 1650.0      17.5561476009627
 1700.0      18.0972749346864
 1750.0      18.6228751122156
 1800.0      19.1632564831530
 1850.0      19.7034705412110
 1900.0      20.2560172545529
 1950.0      20.7783079622602
 2000.0      21.3134517108512
 2050.0      21.8549197703247
 2100.0      22.3960038978186
 2150.0      22.9388956968850
 2200.0      23.4897216410733
 2250.0      24.0348784395711
 2300.0      24.5788346748631
 2350.0      25.0997292766729
 2400.0      25.6439277640942
 2450.0      26.1882736638880
 2500.0      26.7082836036457
 2550.0      27.2527169366475
 2600.0      27.7959448231841
 2650.0      28.3278897265602
 2700.0      28.8692911189272
 2750.0      29.3875286560042
 2800.0      29.9283179832511
 2850.0      30.4686363699414
 2900.0      31.0072140951370
 2950.0      31.5477221531752
 3000.0      32.0972494770025
 3050.0      32.6420233152726
 3100.0      33.2179813540989
 3150.0      33.7669421218438
 3200.0      34.2761879778312
 3250.0      34.8073282458143
 3300.0      35.3542915971448
 3350.0      35.8830489162002
 3400.0      36.4642970601626
 3450.0      37.0015698526902
 3500.0      37.5109177671659
 3550.0      38.0529927471887
 3600.0      38.6004719111668
 3650.0      39.1286058225480
 3700.0      39.6697196333996
 3750.0      40.1887707476237
 3800.0      40.7345321965267
 3850.0      41.2794282469376
 3900.0      41.7961005278910
 3950.0      42.3396970923465
 4000.0      42.9125110633895
 4050.0      43.4627211126104
 4100.0      43.9639601870339
 4150.0      44.5097754171181
 4200.0      45.0575653621769
 4250.0      45.6156109195794
 4300.0      46.1098211545446
 4350.0      46.6472780083882
 4400.0      47.1916682576498
 4450.0      47.7369963050320
 4500.0      48.2519862459600
 4550.0      48.7990298689290
 4600.0      49.3424944873886
 4650.0      49.8978354540220
 4700.0      50.4386836253614
 4750.0      50.9721590549242
 4800.0      51.5238379689744
 4850.0      52.0530353693268
 4900.0      52.6048282968683
 4950.0      53.1411710326297
 5000.0      53.6790701562543
# V=  83.3985934343434
    0.0       0.0000000000000
   50.0       0.3332370348733
  100.0       0.8556000768810
  150.0       1.3895620685311
  200.0       1.9282292602651
  250.0       2.4680593863432
  300.0       3.0076587335017
  350.0       3.5490324350116
  400.0       4.0899508746571
  450.0       4.6306442515730
  500.0       5.1718780779152
  550.0       5.6774898416543
  600.0       6.2185811797133
  650.0       6.7595076873527
  700.0       7.3133799443104
  750.0       7.8529713214670
  800.0       8.3939000175905
  850.0       8.9355225611801
  900.0       9.4875691813968
  950.0      10.0296808266951
 1000.0      10.5658291956668
 1050.0      11.1105332637558
 1100.0      11.6536998809023
 1150.0      12.1967790648408
 1200.0      12.7392698486855
 1250.0      13.2795322983742
 1300.0      13.7981107163548
 1350.0      14.3403405234650
 1400.0      14.8867300101560
 1450.0      15.4289526883608
 1500.0      15.9911210314210
 1550.0      16.5236858882594
 1600.0      17.0477226796758
 1650.0      17.5796087307934
 1700.0      18.1213876366758
 1750.0      18.6483200212649
 1800.0      19.1893908300361
 1850.0      19.7303029083789
 1900.0      20.2830042691565
 1950.0      20.8067743513167
 2000.0      21.3428129694416
 2050.0      21.8849167263978
 2100.0      22.4266543777208
 2150.0      22.9701172323275
 2200.0      23.5211295733036
 2250.0      24.0667627590705
 2300.0      24.6112419359156
 2350.0      25.1338473688745
 2400.0      25.6785603460539
 2450.0      26.2234144722946
 2500.0      26.7448855436933
 2550.0      27.2898273154576
 2600.0      27.8336109871416
 2650.0      28.3666908481949
 2700.0      28.9087338665501
 2750.0      29.4286258731435
 2800.0      29.9700804260769
 2850.0      30.5110856538176
 2900.0      31.0504394334566
 2950.0      31.5916262808835
 3000.0      32.1414753527101
 3050.0      32.6867076130810
 3100.0      33.2617171236817
 3150.0      33.8109320985590
 3200.0      34.3223808598231
 3250.0      34.8545602331443
 3300.0      35.4019629308330
 3350.0      35.9319310695721
 3400.0      36.5119271882874
 3450.0      37.0500716017881
 3500.0      37.5615707961792
 3550.0      38.1042562816191
 3600.0      38.6521092354228
 3650.0      39.1814720623120
 3700.0      39.7232490491876
 3750.0      40.2438856711798
 3800.0      40.7900934728567
 3850.0      41.3354696505581
 3900.0      41.8539164491825
 3950.0      42.3980567049604
 4000.0      42.9700436903079
 4050.0      43.5205007605938
 4100.0      44.0242422359825
 4150.0      44.5704957018510
 4200.0      45.1185970976013
 4250.0      45.6766412177903
 4300.0      46.1735652710885
 4350.0      46.7118471017952
 4400.0      47.2567396571643
 4450.0      47.8025323491282
 4500.0      48.3193774386693
 4550.0      48.8668040626959
 4600.0      49.4107793982282
 4650.0      49.9661589083137
 4700.0      50.5076790422776
 4750.0      51.0421676093442
 4800.0      51.5940509996743
 4850.0      52.1244128369123
 4900.0      52.6763954766317
 4950.0      53.2136197632046
 5000.0      53.7523145151401
# V=  83.2919151515151
    0.0       0.0000000000000
   50.0       0.3333523957519
  100.0       0.8563028007735
  150.0       1.3909407808791
  200.0       1.9302422328822
  250.0       2.4707115841486
  300.0       3.0109947672748
  350.0       3.5529884549109
  400.0       4.0945602468998
  450.0       4.6359250964813
  500.0       5.1778106011399
  550.0       5.6857439219267
  600.0       6.2275005183362
  650.0       6.7691024591442
  700.0       7.3231203319574
  750.0       7.8634282825180
  800.0       8.4050395162176
  850.0       8.9473143260745
  900.0       9.4995438888670
  950.0      10.0422856951096
 1000.0      10.5793972665832
 1050.0      11.1245514764635
 1100.0      11.6683012348091
 1150.0      12.2119678797530
 1200.0      12.7550736929705
 1250.0      13.2960562356033
 1300.0      13.8163388212889
 1350.0      14.3591969683285
 1400.0      14.9059535732350
 1450.0      15.4488010065016
 1500.0      16.0106372552586
 1550.0      16.5443140008649
 1600.0      17.0698099722516
 1650.0      17.6028956719848
 1700.0      18.1453215934057
 1750.0      18.6735731684737
 1800.0      19.2153286706413
 1850.0      19.7569338533453
 1900.0      20.3097921072048
 1950.0      20.8350265384041
 2000.0      21.3719526685102
 2050.0      21.9146876806527
 2100.0      22.4570748463059
 2150.0      23.0011052940752
 2200.0      23.5523057956918
 2250.0      24.0984130414218
 2300.0      24.6434126610284
 2350.0      25.1677111477859
 2400.0      25.7129360995997
 2450.0      26.2582960841515
 2500.0      26.7812134740933
 2550.0      27.3266611123348
 2600.0      27.8709974007635
 2650.0      28.4052020691742
 2700.0      28.9478819037519
 2750.0      29.4694117049190
 2800.0      30.0115268942551
 2850.0      30.5532140226251
 2900.0      31.0933379200358
 2950.0      31.6351991227211
 3000.0      32.1853698935512
 3050.0      32.7310585345265
 3100.0      33.3051357508809
 3150.0      33.8546057168252
 3200.0      34.3682332120484
 3250.0      34.9014423978160
 3300.0      35.4492827106741
 3350.0      35.9804502530492
 3400.0      36.5592142388582
 3450.0      37.0982236098877
 3500.0      37.6118500761967
 3550.0      38.1551425720116
 3600.0      38.7033686296983
 3650.0      39.2339484170924
 3700.0      39.7763841866919
 3750.0      40.2985903274521
 3800.0      40.8452424894025
 3850.0      41.3910967855620
 3900.0      41.9112995650701
 3950.0      42.4559802947722
 4000.0      43.0271550421940
 4050.0      43.5778596561679
 4100.0      44.0840757355069
 4150.0      44.6307661306020
 4200.0      45.1791786014084
 4250.0      45.7372257593440
 4300.0      46.2368324859060
 4350.0      46.7759330709949
 4400.0      47.3213255316717
 4450.0      47.8675807123972
 4500.0      48.3862617604850
 4550.0      48.9340705036427
 4600.0      49.4785538614724
 4650.0      50.0339748384328
 4700.0      50.5761627703688
 4750.0      51.1116552800395
 4800.0      51.6637449594983
 4850.0      52.1952605688444
 4900.0      52.7474341619715
 4950.0      53.2855326989650
 5000.0      53.8250168077344
# V=  83.1852368686869
    0.0       0.0000000000000
   50.0       0.3334652496733
  100.0       0.8569982814369
  150.0       1.3923071870869
  200.0       1.9322380324317
  250.0       2.4733425585574
  300.0       3.0143049802016
  350.0       3.5569141626717
  400.0       4.0991350280276
  450.0       4.6411665568411
  500.0       5.1836992485239
  550.0       5.6939277012290
  600.0       6.2363450973608
  650.0       6.7786177268997
  700.0       7.3327835673724
  750.0       7.8738024813050
  800.0       8.4160911570056
  850.0       8.9590138969916
  900.0       9.5114284928522
  950.0      10.0547964097102
 1000.0      10.5928623480891
 1050.0      11.1384650338996
 1100.0      11.6827942505847
 1150.0      12.2270445266869
 1200.0      12.7707614251063
 1250.0      13.3124588262862
 1300.0      13.8344273776947
 1350.0      14.3779095285256
 1400.0      14.9250327208584
 1450.0      15.4685006873723
 1500.0      16.0300135304348
 1550.0      16.5647917041815
 1600.0      17.0917316096435
 1650.0      17.6260052724665
 1700.0      18.1690742162590
 1750.0      18.6986314099379
 1800.0      19.2410667222422
 1850.0      19.7833601505464
 1900.0      20.3363771511663
 1950.0      20.8630609141572
 2000.0      21.4008667822261
 2050.0      21.9442294075254
 2100.0      22.4872615063908
 2150.0      23.0318561012766
 2200.0      23.5832464783909
 2250.0      24.1298256200980
 2300.0      24.6753427508771
 2350.0      25.2013165385804
 2400.0      25.7470507865853
 2450.0      26.2929137795194
 2500.0      26.8172624789225
 2550.0      27.3632137379952
 2600.0      27.9080996544180
 2650.0      28.4434182694250
 2700.0      28.9867309107262
 2750.0      29.5098807536145
 2800.0      30.0526523412068
 2850.0      30.5950166339342
 2900.0      31.1359046226194
 2950.0      31.6784354361255
 3000.0      32.2289274078339
 3050.0      32.7750708288803
 3100.0      33.3482320584618
 3150.0      33.8979577014157
 3200.0      34.4137394979693
 3250.0      34.9479689909762
 3300.0      35.4962456124459
 3350.0      36.0286007504416
 3400.0      36.6061526753371
 3450.0      37.1460198668238
 3500.0      37.6617501850041
 3550.0      38.2056455102094
 3600.0      38.7542437571886
 3650.0      39.2860288440602
 3700.0      39.8291187254398
 3750.0      40.3528776610294
 3800.0      40.8999726970439
 3850.0      41.4463028088535
 3900.0      41.9682425424987
 3950.0      42.5134608880302
 4000.0      43.0838379003168
 4050.0      43.6347915441883
 4100.0      44.1434536138637
 4150.0      44.6905792886563
 4200.0      45.2393026222032
 4250.0      45.7973571295259
 4300.0      46.2996153842827
 4350.0      46.8395278806577
 4400.0      47.3854177641824
 4450.0      47.9321337514765
 4500.0      48.4526304901349
 4550.0      49.0008204215013
 4600.0      49.5458093028367
 4650.0      50.1012755520214
 4700.0      50.6441267416415
 4750.0      51.1806140480122
 4800.0      51.7329111435058
 4850.0      52.2655694518836
 4900.0      52.8179358765951
 4950.0      53.3569011186383
 5000.0      53.8971685250804
# V=  83.0785585858586
    0.0       0.0000000000000
   50.0       0.3335762254179
  100.0       0.8576869680001
  150.0       1.3936613606481
  200.0       1.9342173285240
  250.0       2.4759523177356
  300.0       3.0175888006627
  350.0       3.5608097052816
  400.0       4.1036747607452
  450.0       4.6463683223446
  500.0       5.1895438649135
  550.0       5.7020406569379
  600.0       6.2451137082212
  650.0       6.7880522902193
  700.0       7.3423683113335
  750.0       7.8840928154195
  800.0       8.4270545643188
  850.0       8.9706204899961
  900.0       9.5232214744786
  950.0      10.0672111168177
 1000.0      10.6062235255938
 1050.0      11.1522722293730
 1100.0      11.6971774583518
 1150.0      12.2420078134083
 1200.0      12.7863318936886
 1250.0      13.3287388536909
 1300.0      13.8523744257358
 1350.0      14.3964763340451
 1400.0      14.9439652400441
 1450.0      15.4880499344558
 1500.0      16.0492478644489
 1550.0      16.5851168342226
 1600.0      17.1134852318810
 1650.0      17.6489351232727
 1700.0      18.1926424593231
 1750.0      18.7234920998779
 1800.0      19.2666024533835
 1850.0      19.8095787622351
 1900.0      20.3627568532532
 1950.0      20.8908745714850
 2000.0      21.4295525259881
 2050.0      21.9735382813182
 2100.0      22.5172106016221
 2150.0      23.0623662323839
 2200.0      23.6139478650474
 2250.0      24.1609970817166
 2300.0      24.7070290207272
 2350.0      25.2346597767386
 2400.0      25.7809006261593
 2450.0      26.3272642021778
 2500.0      26.8530290386412
 2550.0      27.3994809951221
 2600.0      27.9449131751529
 2650.0      28.4813350964770
 2700.0      29.0252765268369
 2750.0      29.5500286994236
 2800.0      30.0934517448504
 2850.0      30.6364884085018
 2900.0      31.1781343966362
 2950.0      31.7213297008901
 3000.0      32.2721434532619
 3050.0      32.8187393270734
 3100.0      33.3910011876628
 3150.0      33.9409833242252
 3200.0      34.4588945158528
 3250.0      34.9941347945596
 3300.0      35.5428460751119
 3350.0      36.0763770333770
 3400.0      36.6527374103147
 3450.0      37.1934548932202
 3500.0      37.7112647939622
 3550.0      38.2557593391922
 3600.0      38.8047291058533
 3650.0      39.3377075371993
 3700.0      39.8814469247432
 3750.0      40.4067415555884
 3800.0      40.9542777834739
 3850.0      41.5010815714454
 3900.0      42.0247391181575
 3950.0      42.5704919437798
 4000.0      43.1400864586603
 4050.0      43.6912896387204
 4100.0      44.2023688074753
 4150.0      44.7499280961042
 4200.0      45.2989626680271
 4250.0      45.8570285097379
 4300.0      46.3619067229888
 4350.0      46.9026246468575
 4400.0      47.4490091441312
 4450.0      47.9961839291614
 4500.0      48.5184759434262
 4550.0      49.0670462300708
 4600.0      49.6125378748088
 4650.0      50.1680534955426
 4700.0      50.7115628146076
 4750.0      51.2490359677583
 4800.0      51.8015419818281
 4850.0      52.3353315405257
 4900.0      52.8878925933384
 4950.0      53.4277171583803
 5000.0      53.9687615093582
# V=  82.9718803030303
    0.0       0.0000000000000
   50.0       0.3336846207111
  100.0       0.8583681173586
  150.0       1.3950028605998
  200.0       1.9361795822045
  250.0       2.4785404533840
  300.0       3.0208459346829
  350.0       3.5646742824741
  400.0       4.1081789877571
  450.0       4.6515295845597
  500.0       5.1953432335768
  550.0       5.7100811150266
  600.0       6.2538050443598
  650.0       6.7974048098814
  700.0       7.3518734695989
  750.0       7.8942980681301
  800.0       8.4379274761797
  850.0       8.9821320227622
  900.0       9.5349213883669
  950.0      10.0795285752026
 1000.0      10.6194780716585
 1050.0      11.1659713888566
 1100.0      11.7114490452614
 1150.0      12.2568556575912
 1200.0      12.8017827224155
 1250.0      13.3448935985441
 1300.0      13.8701775319482
 1350.0      14.4148952372333
 1400.0      14.9627489504737
 1450.0      15.5074459386532
 1500.0      16.0683374155381
 1550.0      16.6052865328936
 1600.0      17.1350681523553
 1650.0      17.6716825051303
 1700.0      18.2160235624947
 1750.0      18.7481518330778
 1800.0      19.2919320342178
 1850.0      19.8355862341997
 1900.0      20.3889276041003
 1950.0      20.9184634273948
 2000.0      21.4580058576335
 2050.0      22.0026102435361
 2100.0      22.5469185961280
 2150.0      23.0926316860641
 2200.0      23.6444063952915
 2250.0      24.1919231146376
 2300.0      24.7384674120839
 2350.0      25.2677363383044
 2400.0      25.8144813556772
 2450.0      26.3613429669929
 2500.0      26.8885080005123
 2550.0      27.4354584169215
 2600.0      27.9814337084899
 2650.0      28.5189477405646
