#T (K)      V (a.u.^3)
# P= 600.000000 GPa
    0.0      81.3830437299155
   50.0      81.3961189249485
  100.0      81.4169131114557
  150.0      81.4382297304896
  200.0      81.4597134887818
  250.0      81.4812549892851
  300.0      81.5028234655585
  350.0      81.5244305288704
  400.0      81.5460486553204
  450.0      81.5676770342937
  500.0      81.5893229111490
  550.0      81.6105540561723
  600.0      81.6322081736361
  650.0      81.6538696766913
  700.0      81.6757479850030
  750.0      81.6973986120014
  800.0      81.7190903956455
  850.0      81.7408004987859
  900.0      81.7626746112751
  950.0      81.7844110694225
 1000.0      81.8060975793699
 1050.0      81.8278557611759
 1100.0      81.8496330203829
 1150.0      81.8714177046325
 1200.0      81.8932018814427
 1250.0      81.9149587644930
 1300.0      81.9363502625600
 1350.0      81.9581471850955
 1400.0      81.9799909871585
 1450.0      82.0018036926681
 1500.0      82.0239670691951
 1550.0      82.0456442962935
 1600.0      82.0671421977496
 1650.0      82.0888320953446
 1700.0      82.1106702460385
 1750.0      82.1322185869272
 1800.0      82.1540549315198
 1850.0      82.1758954379977
 1900.0      82.1979890177460
 1950.0      82.2194796495447
 2000.0      82.2412225769103
 2050.0      82.2631099174902
 2100.0      82.2849970904234
 2150.0      82.3069291371620
 2200.0      82.3290286171625
 2250.0      82.3510325588046
 2300.0      82.3730168169723
 2350.0      82.3945509989368
 2400.0      82.4165510425452
 2450.0      82.4385637559561
 2500.0      82.4599619481409
 2550.0      82.4819894125341
 2600.0      82.5039944652956
 2650.0      82.5257568998155
 2700.0      82.5477302206352
 2750.0      82.5691184475306
 2800.0      82.5910812675932
 2850.0      82.6130386354792
 2900.0      82.6349600891594
 2950.0      82.6569344256474
 3000.0      82.6791719809474
 3050.0      82.7012695141629
 3100.0      82.7242365871399
 3150.0      82.7464775665423
 3200.0      82.7676499085190
 3250.0      82.7893857972752
 3300.0      82.8116098019318
 3350.0      82.8332970631726
 3400.0      82.8565197393978
 3450.0      82.8784883794015
 3500.0      82.8996135395939
 3550.0      82.9217161208085
 3600.0      82.9439958249964
 3650.0      82.9656723060618
 3700.0      82.9877639611597
 3750.0      83.0091357858256
 3800.0      83.0313824736790
 3850.0      83.0536093947159
 3900.0      83.0749057376168
 3950.0      83.0970966480027
 4000.0      83.1202867326435
 4050.0      83.1427343167893
 4100.0      83.1634887560731
 4150.0      83.1857866809725
 4200.0      83.2081605699462
 4250.0      83.2309325338425
 4300.0      83.2513760192881
 4350.0      83.2733904557546
 4400.0      83.2956652233945
 4450.0      83.3179841056439
 4500.0      83.3391596243163
 4550.0      83.3615500344399
 4600.0      83.3838104628260
 4650.0      83.4065475066774
 4700.0      83.4287261618929
 4750.0      83.4506150933748
 4800.0      83.4732397314858
 4850.0      83.4949593045001
 4900.0      83.5176074287297
 4950.0      83.5396256737886
 5000.0      83.5617111795357
# P= 602.000000 GPa
    0.0      81.3051130874821
   50.0      81.3181524809630
  100.0      81.3389005404953
  150.0      81.3601718430993
  200.0      81.3816091193137
  250.0      81.4031041970753
  300.0      81.4246271862596
  350.0      81.4461873820999
  400.0      81.4677593884587
  450.0      81.4893420829062
  500.0      81.5109418662530
  550.0      81.5321643368683
  600.0      81.5537729691590
  650.0      81.5753892634821
  700.0      81.5972101795566
  750.0      81.6188166036621
  800.0      81.6404633979291
  850.0      81.6621278635726
  900.0      81.6839453714425
  950.0      81.7056356804134
 1000.0      81.7272838571043
 1050.0      81.7489918374283
 1100.0      81.7707219435054
 1150.0      81.7924596047615
 1200.0      81.8141974517623
 1250.0      81.8359105944233
 1300.0      81.8572825903715
 1350.0      81.8790337674058
 1400.0      81.9008255260809
 1450.0      81.9225924498170
 1500.0      81.9446861218644
 1550.0      81.9663297164959
 1600.0      81.9878030543292
 1650.0      82.0094618149088
 1700.0      82.0312550603233
 1750.0      82.0527758922332
 1800.0      82.0745684688894
 1850.0      82.0963654735690
 1900.0      82.1184015434973
 1950.0      82.1398690742280
 2000.0      82.1615739121207
 2050.0      82.1834164094966
 2100.0      82.2052592444655
 2150.0      82.2271448092112
 2200.0      82.2491876356091
 2250.0      82.2711425211228
 2300.0      82.2930789936929
 2350.0      82.3145972713228
 2400.0      82.3365494742409
 2450.0      82.3585141690769
 2500.0      82.3798909022339
 2550.0      82.4018704883935
 2600.0      82.4238290091374
 2650.0      82.4455609397000
 2700.0      82.4674902234873
 2750.0      82.4888630966261
 2800.0      82.5107827920468
 2850.0      82.5326976983558
 2900.0      82.5545792673027
 2950.0      82.5765110261152
 3000.0      82.5986956263159
 3050.0      82.6207443109946
 3100.0      82.6436214498618
 3150.0      82.6658073836446
 3200.0      82.6869816940504
 3250.0      82.7086859628917
 3300.0      82.7308604048258
 3350.0      82.7525212377922
 3400.0      82.7756439746965
 3450.0      82.7975759398730
 3500.0      82.8187032320076
 3550.0      82.8407616671148
 3600.0      82.8629899977539
 3650.0      82.8846413781013
 3700.0      82.9066906303122
 3750.0      82.9280488466397
 3800.0      82.9502466294895
 3850.0      82.9724257047104
 3900.0      82.9937147510418
 3950.0      83.0158599786183
 4000.0      83.0389611436715
 4050.0      83.0613534342253
 4100.0      83.0821244399249
 4150.0      83.1043734231212
 4200.0      83.1266943490410
 4250.0      83.1494028169606
 4300.0      83.1698712461634
 4350.0      83.1918494953355
 4400.0      83.2140776349951
 4450.0      83.2363486413564
 4500.0      83.2575221016911
 4550.0      83.2798621296267
 4600.0      83.3020764691055
 4650.0      83.3247514823733
 4700.0      83.3468893071947
 4750.0      83.3687489186797
 4800.0      83.3913170005959
 4850.0      83.4130126753623
 4900.0      83.4356037349495
 4950.0      83.4575885364116
 5000.0      83.4796377899146
# P= 604.000000 GPa
    0.0      81.2274070224030
   50.0      81.2404107551961
  100.0      81.2611127759818
  150.0      81.2823388245105
  200.0      81.3037297153627
  250.0      81.3251784581883
  300.0      81.3466560324875
  350.0      81.3681694652520
  400.0      81.3896954418833
  450.0      81.4112325223848
  500.0      81.4327863040426
  550.0      81.4539992754294
  600.0      81.4755624976038
  650.0      81.4971336632261
  700.0      81.5188975538668
  750.0      81.5404598186265
  800.0      81.5620616988034
  850.0      81.5836806131758
  900.0      81.6054418650047
  950.0      81.6270861183840
 1000.0      81.6486958737397
 1050.0      81.6703538528382
 1100.0      81.6920369256841
 1150.0      81.7137276878376
 1200.0      81.7354193033778
 1250.0      81.7570887663955
 1300.0      81.7784407553794
 1350.0      81.8001462836520
 1400.0      81.8218862389709
 1450.0      81.8436074750208
 1500.0      81.8656320809910
 1550.0      81.8872418660849
 1600.0      81.9086902802590
 1650.0      81.9303176851147
 1700.0      81.9520661059406
 1750.0      81.9735591321281
 1800.0      81.9953080061007
 1850.0      82.0170615730566
 1900.0      82.0390404897333
 1950.0      82.0604845397376
 2000.0      82.0821512393571
 2050.0      82.1039489851290
 2100.0      82.1257475680258
 2150.0      82.1475867835954
 2200.0      82.1695732892933
 2250.0      82.1914792986352
 2300.0      82.2133681389784
 2350.0      82.2348700143584
 2400.0      82.2567745311336
 2450.0      82.2786913798134
 2500.0      82.3000462665777
 2550.0      82.3219781370656
 2600.0      82.3438902533981
 2650.0      82.3655914951013
 2700.0      82.3874768335081
 2750.0      82.4088338643421
 2800.0      82.4307105077170
 2850.0      82.4525830100752
 2900.0      82.4744247044938
 2950.0      82.4963139506779
 3000.0      82.5184458673395
 3050.0      82.5404458800194
 3100.0      82.5632340698741
 3150.0      82.5853652693606
 3200.0      82.6065407495300
 3250.0      82.6282132516579
 3300.0      82.6503383293193
 3350.0      82.6719725002920
 3400.0      82.6949964604259
 3450.0      82.7168916986600
 3500.0      82.7380203477091
 3550.0      82.7600347370727
 3600.0      82.7822119384152
 3650.0      82.8038379530363
 3700.0      82.8258448775822
 3750.0      82.8471890202958
 3800.0      82.8693380971348
 3850.0      82.8914695105289
 3900.0      82.9127506753569
 3950.0      82.9348503597810
 4000.0      82.9578635285530
 4050.0      82.9802008328547
 4100.0      83.0009874237809
 4150.0      83.0231876644629
 4200.0      83.0454558922659
 4250.0      83.0681013140839
 4300.0      83.0885935732692
 4350.0      83.1105356181485
 4400.0      83.1327172768100
 4450.0      83.1549405916718
 4500.0      83.1761113637166
 4550.0      83.1984012365715
 4600.0      83.2205696444190
 4650.0      83.2431830552575
 4700.0      83.2652801169791
 4750.0      83.2871102610944
 4800.0      83.3096221291775
 4850.0      83.3312936859512
 4900.0      83.3538280123625
 4950.0      83.3757793086902
 5000.0      83.3977922992097
# P= 606.000000 GPa
    0.0      81.1499242852158
   50.0      81.1628924866147
  100.0      81.1835485625437
  150.0      81.2047294201767
  200.0      81.2260740174546
  250.0      81.2474765149086
  300.0      81.2689087468105
  350.0      81.2903755234151
  400.0      81.3118555553486
  450.0      81.3333470991765
  500.0      81.3548549622946
  550.0      81.3760576155299
  600.0      81.3975755132770
  650.0      81.4191016158366
  700.0      81.4408088496405
  750.0      81.4623270020804
  800.0      81.4838840431211
  850.0      81.5054574796485
  900.0      81.5271628166218
  950.0      81.5487611224980
 1000.0      81.5703323714741
 1050.0      81.5919405415264
 1100.0      81.6135767082700
 1150.0      81.6352206892023
 1200.0      81.6568661814702
 1250.0      81.6784920074981
 1300.0      81.6998234899409
 1350.0      81.7214834662142
 1400.0      81.7431718639128
 1450.0      81.7648475088016
 1500.0      81.7868036764750
 1550.0      81.8083794835687
 1600.0      81.8298026012415
 1650.0      81.8513984369280
 1700.0      81.8731021220597
 1750.0      81.8945670464609
 1800.0      81.9162722814076
 1850.0      81.9379824717494
 1900.0      81.9599045877632
 1950.0      81.9813247880146
 2000.0      82.0029532928427
 2050.0      82.0247063824418
 2100.0      82.0464607938910
 2150.0      82.0682537832184
 2200.0      82.0901843091824
 2250.0      82.1120416210244
 2300.0      82.1338829880823
 2350.0      82.1553679535134
 2400.0      82.1772249470329
 2450.0      82.1990941138771
 2500.0      82.2204267729864
 2550.0      82.2423110955311
 2600.0      82.2641769406058
 2650.0      82.2858473014045
 2700.0      82.3076887840970
 2750.0      82.3290294862140
 2800.0      82.3508631560327
 2850.0      82.3726933108348
 2900.0      82.3944951348466
 2950.0      82.4163419395344
 3000.0      82.4384214409196
 3050.0      82.4603729602609
 3100.0      82.4830731834950
 3150.0      82.5051499429616
 3200.0      82.5263258027134
 3250.0      82.5479663959405
 3300.0      82.5700423076541
 3350.0      82.5916495799182
 3400.0      82.6145759163550
 3450.0      82.6364343754242
 3500.0      82.6575636109524
 3550.0      82.6795340545909
 3600.0      82.7016603644564
 3650.0      82.7232607580880
 3700.0      82.7452254302400
 3750.0      82.7665550388240
 3800.0      82.7886556044561
 3850.0      82.8107395216957
 3900.0      82.8320122511633
 3950.0      82.8540665274739
 4000.0      82.8769926251394
 4050.0      82.8992752419195
 4100.0      82.9200764347747
 4150.0      82.9422281296666
 4200.0      82.9644439230518
 4250.0      82.9870267498734
 4300.0      83.0075417329408
 4350.0      83.0294475389853
 4400.0      83.0515828849487
 4450.0      83.0737586846162
 4500.0      83.0949261493831
 4550.0      83.1171660935083
 4600.0      83.1392887170902
 4650.0      83.1618409652095
 4700.0      83.1838973198336
 4750.0      83.2056978605034
 4800.0      83.2281538351874
 4850.0      83.2498010544330
 4900.0      83.2722789864490
 4950.0      83.2941967140689
 5000.0      83.3161734263398
# P= 608.000000 GPa
    0.0      81.0726636389000
   50.0      81.0855964343763
  100.0      81.1062066534631
  150.0      81.1273423819012
  200.0      81.1486407802166
  250.0      81.1699971258567
  300.0      81.1913840815558
  350.0      81.2128043029802
  400.0      81.2342384788468
  450.0      81.2556845646316
  500.0      81.2771465908510
  550.0      81.2983381196408
  600.0      81.3198107730760
  650.0      81.3412918823187
  700.0      81.3629428182896
  750.0      81.3844169114254
  800.0      81.4059291821228
  850.0      81.4274572262258
  900.0      81.4491069843826
  950.0      81.4706594403298
 1000.0      81.4921921090176
 1050.0      81.5137506517696
 1100.0      81.5353400442199
 1150.0      81.5569373538243
 1200.0      81.5785368375457
 1250.0      81.6001190567090
 1300.0      81.6214295512462
 1350.0      81.6430440753973
 1400.0      81.6646811479761
 1450.0      81.6863113030441
 1500.0      81.7081996484086
 1550.0      81.7297413126967
 1600.0      81.7511387738031
 1650.0      81.7727028174535
 1700.0      81.7943618541850
 1750.0      81.8157983928827
 1800.0      81.8374600497126
 1850.0      81.8591269168600
 1900.0      81.8809925898793
 1950.0      81.9023885724964
 2000.0      81.9239788287627
 2050.0      81.9456873501322
 2100.0      81.9673976756273
 2150.0      81.9891445599144
 2200.0      82.0110194416601
 2250.0      82.0328282416219
 2300.0      82.0546222816654
 2350.0      82.0760898420392
 2400.0      82.0978994649944
 2450.0      82.1197211038895
 2500.0      82.1410311710669
 2550.0      82.1628681066818
 2600.0      82.1846878172574
 2650.0      82.2063271090829
 2700.0      82.2281248152276
 2750.0      82.2494487153868
 2800.0      82.2712394815693
 2850.0      82.2930273470718
 2900.0      82.3147893134920
 2950.0      82.3365937375421
 3000.0      82.3586210760730
 3050.0      82.3805242931685
 3100.0      82.4031375226236
 3150.0      82.4251601387854
 3200.0      82.4463355916645
 3250.0      82.4679441388291
 3300.0      82.4899710817223
 3350.0      82.5115512152842
 3400.0      82.5343810704057
 3450.0      82.5562027091444
 3500.0      82.5773317694831
 3550.0      82.5992583625079
 3600.0      82.6213340065740
 3650.0      82.6429085374839
 3700.0      82.6648310267193
 3750.0      82.6861456498858
 3800.0      82.7081978883894
 3850.0      82.7302344762707
 3900.0      82.7514982235620
 3950.0      82.7735072264888
 4000.0      82.7963471481664
 4050.0      82.8185753970872
 4100.0      82.8393902092283
 4150.0      82.8614935505829
 4200.0      82.8836571810741
 4250.0      82.9061778743381
 4300.0      82.9267144619392
 4350.0      82.9485840054810
 4400.0      82.9706732021961
 4450.0      82.9928016627505
 4500.0      83.0139652107655
 4550.0      83.0361554489980
 4600.0      83.0582324357159
 4650.0      83.0807239474751
 4700.0      83.1027396456547
 4750.0      83.1245104577096
 4800.0      83.1469108631177
 4850.0      83.1685335125998
 4900.0      83.1909553949213
 4950.0      83.2128394872532
 5000.0      83.2347799128000
# P= 610.000000 GPa
    0.0      80.9956238405002
   50.0      81.0085213683197
  100.0      81.0290858161828
  150.0      81.0501764764350
  200.0      81.0714287722815
  250.0      81.0927390554596
  300.0      81.1140808051557
  350.0      81.1354545725272
  400.0      81.1568429719106
  450.0      81.1782436751441
  500.0      81.1996599599463
  550.0      81.2208395524135
  600.0      81.2422670375045
  650.0      81.2637032309983
  700.0      81.2852982257647
  750.0      81.3067283138561
  800.0      81.3281958712300
  850.0      81.3496786154563
  900.0      81.3712731362026
  950.0      81.3927798298360
 1000.0      81.4142738327875
 1050.0      81.4357829421614
 1100.0      81.4573256874109
 1150.0      81.4788764407523
 1200.0      81.5004300215190
 1250.0      81.5219686854101
 1300.0      81.5432576986831
 1350.0      81.5648268707147
 1400.0      81.5864128459398
 1450.0      81.6079976109699
 1500.0      81.6298187528666
 1550.0      81.6513261044016
 1600.0      81.6726975517242
 1650.0      81.6942295870856
 1700.0      81.7158440532593
 1750.0      81.7372519274434
 1800.0      81.7588700663014
 1850.0      81.7804936683875
 1900.0      81.8023032564296
 1950.0      81.8236746480336
 2000.0      81.8452266117582
 2050.0      81.8668906480110
 2100.0      81.8885569707263
 2150.0      81.9102578806447
 2200.0      81.9320774451762
 2250.0      81.9538379048870
 2300.0      81.9755847738655
 2350.0      81.9970344346120
 2400.0      82.0187968411359
 2450.0      82.0405711129165
 2500.0      82.0618582213225
 2550.0      82.0836479260111
 2600.0      82.1054216307024
 2650.0      82.1270296754669
 2700.0      82.1487836855221
 2750.0      82.1700903137627
 2800.0      82.1918382401730
 2850.0      82.2135838754236
 2900.0      82.2353060027291
 2950.0      82.2570680935957
 3000.0      82.2790435361579
 3050.0      82.3008986350115
 3100.0      82.3234258311365
 3150.0      82.3453946076627
 3200.0      82.3665688715591
 3250.0      82.3881452333189
 3300.0      82.4101234004990
 3350.0      82.4316761610213
 3400.0      82.4544106675351
 3450.0      82.4761954438444
 3500.0      82.4973235661146
 3550.0      82.5192064144090
 3600.0      82.5412316175113
 3650.0      82.5627800442813
 3700.0      82.5846604119998
 3750.0      82.6059596019295
 3800.0      82.6279637039692
 3850.0      82.6499531368312
 3900.0      82.6712073397475
 3950.0      82.6931712021532
 4000.0      82.7159258534239
 4050.0      82.7381000390850
 4100.0      82.7589275018734
 4150.0      82.7809826831332
 4200.0      82.8030944148255
 4250.0      82.8255534126417
 4300.0      82.8461105163269
 4350.0      82.8679437822724
 4400.0      82.8899869766466
 4450.0      82.9120682726226
 4500.0      82.9332273001475
 4550.0      82.9553680555276
 4600.0      82.9773995570430
 4650.0      82.9998307365953
 4700.0      83.0218058497830
 4750.0      83.0435467920258
 4800.0      83.0658919617263
 4850.0      83.0874898165616
 4900.0      83.1098559848693
 4950.0      83.1317063822511
 5000.0      83.1536105105830
# P= 612.000000 GPa
    0.0      80.9188036706849
   50.0      80.9316660642668
  100.0      80.9521848270583
  150.0      80.9732304863955
  200.0      80.9944367605469
  250.0      81.0157010730295
  300.0      81.0369976846137
  350.0      81.0583251062387
  400.0      81.0796678050670
  450.0      81.1010232029995
  500.0      81.1223938331268
  550.0      81.1435606905764
  600.0      81.1649430818487
  650.0      81.1863344317094
  700.0      81.2078738453352
  750.0      81.2292599781511
  800.0      81.2506828853042
  850.0      81.2721204164667
  900.0      81.2936600327609
  950.0      81.3151210659209
 1000.0      81.3365763174580
 1050.0      81.3580361881038
 1100.0      81.3795323976321
 1150.0      81.4010367229330
 1200.0      81.4225444972168
 1250.0      81.4440396575617
 1300.0      81.4653066967078
 1350.0      81.4868306118223
 1400.0      81.5083657223215
 1450.0      81.5299051939821
 1500.0      81.5516597534114
 1550.0      81.5731326232175
 1600.0      81.5944776927137
 1650.0      81.6159775114290
 1700.0      81.6375474926075
 1750.0      81.6589264209489
 1800.0      81.6805011014975
 1850.0      81.7020814961634
 1900.0      81.7238353452044
 1950.0      81.7451817830991
 2000.0      81.7666954038561
 2050.0      81.7883150460292
 2100.0      81.8099374409091
 2150.0      81.8315925013043
 2200.0      81.8533570820983
 2250.0      81.8750693777584
 2300.0      81.8967692280632
 2350.0      81.9182004911460
 2400.0      81.9399158476380
 2450.0      81.9616429041354
 2500.0      81.9829066889986
 2550.0      82.0046493161722
 2600.0      82.0263771407244
 2650.0      82.0479537587122
 2700.0      82.0696641653183
