# T (K)               Helmholtz Free Energy (Ry.)
# V= 188.6160000000000
    0.00      -0.8578777243592
  100.00      -0.8581588424662
  200.00      -0.8596753756536
  300.00      -0.8624475119453
  400.00      -0.8662577124364
  500.00      -0.8709154379454
  600.00      -0.8762792299805
  700.00      -0.8822446621347
  800.00      -0.8887327953348
  900.00      -0.8956823289826
 1000.00      -0.9030444792360
 1100.00      -0.9107795929437
 1200.00      -0.9188548511842
 1300.00      -0.9272426688947
 1400.00      -0.9359195506394
 1500.00      -0.9448652532713
 1600.00      -0.9540621603004
 1700.00      -0.9634948057009
 1800.00      -0.9731495054257
 1900.00      -0.9830140680217
 2000.00      -0.9930775643351
 2100.00      -1.0033301420381
 2200.00      -1.0137628746323
 2300.00      -1.0243676373084
 2400.00      -1.0351370039679
 2500.00      -1.0460641610988
 2600.00      -1.0571428352043
 2700.00      -1.0683672312253
 2800.00      -1.0797319799591
 2900.00      -1.0912320928913
 3000.00      -1.1028629231837
 3100.00      -1.1146201318044
 3200.00      -1.1264996579839
 3300.00      -1.1384976933267
 3400.00      -1.1506106590330
 3500.00      -1.1628351857769
 3600.00      -1.1751680958653
 3700.00      -1.1876063873645
 3800.00      -1.2001472199299
 3900.00      -1.2127879021178
 4000.00      -1.2255258799891
 4100.00      -1.2383587268469
 4200.00      -1.2512841339683
 4300.00      -1.2642999022149
 4400.00      -1.2774039344190
 4500.00      -1.2905942284587
 4600.00      -1.3038688709455
 4700.00      -1.3172260314585
 4800.00      -1.3306639572668
 4900.00      -1.3441809684901
 5000.00      -1.3577754536527
 5100.00      -1.3714458655918
 5200.00      -1.3851907176854
 5300.00      -1.3990085803697
 5400.00      -1.4128980779177
 5500.00      -1.4268578854565
 5600.00      -1.4408867262004
 5700.00      -1.4549833688807
 5800.00      -1.4691466253563
 5900.00      -1.4833753483873
 6000.00      -1.4976684295604
# V= 178.0210000000000
    0.00      -0.8680089636695
  100.00      -0.8682544509530
  200.00      -0.8696266385557
  300.00      -0.8721827913370
  400.00      -0.8757417582683
  500.00      -0.8801304833077
  600.00      -0.8852154204408
  700.00      -0.8908960459681
  800.00      -0.8970955273139
  900.00      -0.9037537897980
 1000.00      -0.9108228078528
 1100.00      -0.9182634211453
 1200.00      -0.9260431443498
 1300.00      -0.9341346260100
 1400.00      -0.9425145390305
 1500.00      -0.9511627645782
 1600.00      -0.9600617799259
 1700.00      -0.9691961910828
 1800.00      -0.9785523702477
 1900.00      -0.9881181705198
 2000.00      -0.9978826984895
 2100.00      -1.0078361308378
 2200.00      -1.0179695648537
 2300.00      -1.0282748954176
 2400.00      -1.0387447128691
 2500.00      -1.0493722175276
 2600.00      -1.0601511476173
 2700.00      -1.0710757180789
 2800.00      -1.0821405682920
 2900.00      -1.0933407171508
 3000.00      -1.1046715242457
 3100.00      -1.1161286561508
 3200.00      -1.1277080570073
 3300.00      -1.1394059227402
 3400.00      -1.1512186783663
 3500.00      -1.1631429579436
 3600.00      -1.1751755867901
 3700.00      -1.1873135656609
 3800.00      -1.1995540566194
 3900.00      -1.2118943703852
 4000.00      -1.2243319549685
 4100.00      -1.2368643854331
 4200.00      -1.2494893546510
 4300.00      -1.2622046649319
 4400.00      -1.2750082204257
 4500.00      -1.2878980202126
 4600.00      -1.3008721520026
 4700.00      -1.3139287863811
 4800.00      -1.3270661715406
 4900.00      -1.3402826284497
 5000.00      -1.3535765464146
 5100.00      -1.3669463789940
 5200.00      -1.3803906402325
 5300.00      -1.3939079011834
 5400.00      -1.4074967866918
 5500.00      -1.4211559724158
 5600.00      -1.4348841820635
 5700.00      -1.4486801848259
 5800.00      -1.4625427929902
 5900.00      -1.4764708597166
 6000.00      -1.4904632769654
# V= 167.8990000000000
    0.00      -0.8721211181304
  100.00      -0.8722706092976
  200.00      -0.8733176540864
  300.00      -0.8754398582114
  400.00      -0.8785140190850
  500.00      -0.8823924351418
  600.00      -0.8869529925989
  700.00      -0.8921008128243
  800.00      -0.8977621088667
  900.00      -0.9038785746427
 1000.00      -0.9104032745489
 1100.00      -0.9172977532038
 1200.00      -0.9245299996465
 1300.00      -0.9320729923100
 1400.00      -0.9399036399611
 1500.00      -0.9480019964237
 1600.00      -0.9563506679443
 1700.00      -0.9649343585789
 1800.00      -0.9737395162111
 1900.00      -0.9827540531529
 2000.00      -0.9919671228734
 2100.00      -1.0013689395593
 2200.00      -1.0109506307889
 2300.00      -1.0207041161091
 2400.00      -1.0306220060977
 2500.00      -1.0406975177905
 2600.00      -1.0509244033026
 2700.00      -1.0612968891793
 2800.00      -1.0718096245426
 2900.00      -1.0824576365000
 3000.00      -1.0932362915927
 3100.00      -1.1041412622972
 3200.00      -1.1151684977814
 3300.00      -1.1263141982622
 3400.00      -1.1375747924280
 3500.00      -1.1489469174842
 3600.00      -1.1604274014498
 3700.00      -1.1720132473998
 3800.00      -1.1837016193920
 3900.00      -1.1954898298597
 4000.00      -1.2073753282857
 4100.00      -1.2193556909979
 4200.00      -1.2314286119517
 4300.00      -1.2435918943830
 4400.00      -1.2558434432320
 4500.00      -1.2681812582497
 4600.00      -1.2806034277132
 4700.00      -1.2931081226839
 4800.00      -1.3056935917507
 4900.00      -1.3183581562087
 5000.00      -1.3311002056291
 5100.00      -1.3439181937815
 5200.00      -1.3568106348739
 5300.00      -1.3697761000811
 5400.00      -1.3828132143329
 5500.00      -1.3959206533396
 5600.00      -1.4090971408325
 5700.00      -1.4223414460010
 5800.00      -1.4356523811079
 5900.00      -1.4490287992698
 6000.00      -1.4624695923860
# V= 162.9050000000000
    0.00      -0.8723108594152
  100.00      -0.8724643918198
  200.00      -0.8735083631360
  300.00      -0.8756024421265
  400.00      -0.8786311852230
  500.00      -0.8824543266272
  600.00      -0.8869537901389
  700.00      -0.8920368566722
  800.00      -0.8976309591978
  900.00      -0.9036785231244
 1000.00      -0.9101330753912
 1100.00      -0.9169564666435
 1200.00      -0.9241168963111
 1300.00      -0.9315874922641
 1400.00      -0.9393452724223
 1500.00      -0.9473703722888
 1600.00      -0.9556454605320
 1700.00      -0.9641552898056
 1800.00      -0.9728863464526
 1900.00      -0.9818265736707
 2000.00      -0.9909651500583
 2100.00      -1.0002923104915
 2200.00      -1.0097991997657
 2300.00      -1.0194777518953
 2400.00      -1.0293205897241
 2500.00      -1.0393209407723
 2600.00      -1.0494725661844
 2700.00      -1.0597697003360
 2800.00      -1.0702069991827
 2900.00      -1.0807794958323
 3000.00      -1.0914825621231
 3100.00      -1.1023118752325
 3200.00      -1.1132633885201
 3300.00      -1.1243333059575
 3400.00      -1.1355180596108
 3500.00      -1.1468142897354
 3600.00      -1.1582188271155
 3700.00      -1.1697286773413
 3800.00      -1.1813410067662
 3900.00      -1.1930531299255
 4000.00      -1.2048624982320
 4100.00      -1.2167666897910
 4200.00      -1.2287634001987
 4300.00      -1.2408504342100
 4400.00      -1.2530256981744
 4500.00      -1.2652871931535
 4600.00      -1.2776330086457
 4700.00      -1.2900613168530
 4800.00      -1.3025703674314
 4900.00      -1.3151584826767
 5000.00      -1.3278240530994
 5100.00      -1.3405655333530
 5200.00      -1.3533814384783
 5300.00      -1.3662703404359
 5400.00      -1.3792308648983
 5500.00      -1.3922616882786
 5600.00      -1.4053615349744
 5700.00      -1.4185291748071
 5800.00      -1.4317634206404
 5900.00      -1.4450631261619
 6000.00      -1.4584271838152
# V= 158.1140000000000
    0.00      -0.8703868539540
  100.00      -0.8705286167319
  200.00      -0.8715139968293
  300.00      -0.8735106972255
  400.00      -0.8764195783347
  500.00      -0.8801105518573
  600.00      -0.8844707378455
  700.00      -0.8894101375049
  800.00      -0.8948577015175
  900.00      -0.9007567564614
 1000.00      -0.9070613939292
 1100.00      -0.9137338347365
 1200.00      -0.9207425303794
 1300.00      -0.9280607859699
 1400.00      -0.9356657475129
 1500.00      -0.9435376452776
 1600.00      -0.9516592194942
 1700.00      -0.9600152778290
 1800.00      -0.9685923495885
 1900.00      -0.9773784119952
 2000.00      -0.9863626709326
 2100.00      -0.9955353834038
 2200.00      -1.0048877123307
 2300.00      -1.0144116067143
 2400.00      -1.0240997018925
 2500.00      -1.0339452358823
 2600.00      -1.0439419787087
 2700.00      -1.0540841723088
 2800.00      -1.0643664791161
 2900.00      -1.0747839378175
 3000.00      -1.0853319250822
 3100.00      -1.0960061222900
 3200.00      -1.1068024864728
 3300.00      -1.1177172248242
 3400.00      -1.1287467722491
 3500.00      -1.1398877715127
 3600.00      -1.1511370556259
 3700.00      -1.1624916321609
 3800.00      -1.1739486692408
 3900.00      -1.1855054829854
 4000.00      -1.1971595262303
 4100.00      -1.2089083783616
 4200.00      -1.2207497361315
 4300.00      -1.2326814053405
 4400.00      -1.2447012932858
 4500.00      -1.2568074018902
 4600.00      -1.2689978214363
 4700.00      -1.2812707248409
 4800.00      -1.2936243624135
 4900.00      -1.3060570570477
 5000.00      -1.3185671998028
 5100.00      -1.3311532458357
 5200.00      -1.3438137106505
 5300.00      -1.3565471666344
 5400.00      -1.3693522398537
 5500.00      -1.3822276070850
 5600.00      -1.3951719930622
 5700.00      -1.4081841679180
 5800.00      -1.4212629448049
 5900.00      -1.4344071776787
 6000.00      -1.4476157592319
# V= 153.3900000000000
    0.00      -0.8666690746915
  100.00      -0.8668171753203
  200.00      -0.8678093019858
  300.00      -0.8697904406908
  400.00      -0.8726661023539
  500.00      -0.8763133333162
  600.00      -0.8806235024683
  700.00      -0.8855089665237
  800.00      -0.8909000264640
  900.00      -0.8967408219577
 1000.00      -0.9029859577390
 1100.00      -0.9095979920721
 1200.00      -0.9165456063336
 1300.00      -0.9238022670327
 1400.00      -0.9313452364595
 1500.00      -0.9391548305562
 1600.00      -0.9472138539075
 1700.00      -0.9555071633465
 1800.00      -0.9640213263059
 1900.00      -0.9727443499650
 2000.00      -0.9816654640219
 2100.00      -0.9907749446096
 2200.00      -1.0000639701614
 2300.00      -1.0095245023612
 2400.00      -1.0191491869962
 2500.00      -1.0289312707510
 2600.00      -1.0388645308845
 2700.00      -1.0489432154061
 2800.00      -1.0591619918709
 2900.00      -1.0695159033066
 3000.00      -1.0800003300758
 3100.00      -1.0906109567128
 3200.00      -1.1013437429532
 3300.00      -1.1121948983145
 3400.00      -1.1231608597042
 3500.00      -1.1342382716176
 3600.00      -1.1454239685632
 3700.00      -1.1567149594120
 3800.00      -1.1681084134144
 3900.00      -1.1796016476707
 4000.00      -1.1911921158693
 4100.00      -1.2028773981386
 4200.00      -1.2146551918770
 4300.00      -1.2265233034478
 4400.00      -1.2384796406374
 4500.00      -1.2505222057940
 4600.00      -1.2626490895691
 4700.00      -1.2748584651993
 4800.00      -1.2871485832702
 4900.00      -1.2995177669131
 5000.00      -1.3119644073909
 5100.00      -1.3244869600341
 5200.00      -1.3370839404941
 5300.00      -1.3497539212814
 5400.00      -1.3624955285649
 5500.00      -1.3753074392050
 5600.00      -1.3881883780029
 5700.00      -1.4011371151442
 5800.00      -1.4141524638204
 5900.00      -1.4272332780154
 6000.00      -1.4403784504389
# V= 148.7330000000000
    0.00      -0.8604739587555
  100.00      -0.8606152724257
  200.00      -0.8615683850566
  300.00      -0.8634779577532
  400.00      -0.8662606980509
  500.00      -0.8698025594496
  600.00      -0.8739999051693
  700.00      -0.8787678298711
  800.00      -0.8840382040097
  900.00      -0.8897561162777
 1000.00      -0.8958767742249
 1100.00      -0.9023631357514
 1200.00      -0.9091841570526
 1300.00      -0.9163134996424
 1400.00      -0.9237285679686
 1500.00      -0.9314097840607
 1600.00      -0.9393400333093
 1700.00      -0.9475042352144
 1800.00      -0.9558890065908
 1900.00      -0.9644823940893
 2000.00      -0.9732736593627
 2100.00      -0.9822531047143
 2200.00      -0.9914119302344
 2300.00      -1.0007421157008
 2400.00      -1.0102363221496
 2500.00      -1.0198878092197
 2600.00      -1.0296903652566
 2700.00      -1.0396382478215
 2800.00      -1.0497261327526
 2900.00      -1.0599490703011
 3000.00      -1.0703024471645
 3100.00      -1.0807819534610
 3200.00      -1.0913835538711
 3300.00      -1.1021034623116
 3400.00      -1.1129381196200
 3500.00      -1.1238841738165
 3600.00      -1.1349384625828
 3700.00      -1.1460979976565
 3800.00      -1.1573599508867
 3900.00      -1.1687216417366
 4000.00      -1.1801805260495
 4100.00      -1.1917341859247
 4200.00      -1.2033803205685
 4300.00      -1.2151167380059
 4400.00      -1.2269413475554
 4500.00      -1.2388521529802
 4600.00      -1.2508472462424
 4700.00      -1.2629248017945
 4800.00      -1.2750830713523
 4900.00      -1.2873203791005
 5000.00      -1.2996351172847
 5100.00      -1.3120257421547
 5200.00      -1.3244907702222
 5300.00      -1.3370287748054
 5400.00      -1.3496383828317
 5500.00      -1.3623182718755
 5600.00      -1.3750671674108
 5700.00      -1.3878838402577
 5800.00      -1.4007671042081
 5900.00      -1.4137158138131
 6000.00      -1.4267288623203
# V= 144.1450000000000
    0.00      -0.8519764956398
  100.00      -0.8521256898107
  200.00      -0.8530907486359
  300.00      -0.8549906390932
  400.00      -0.8577439605293
  500.00      -0.8612435535255
  600.00      -0.8653904179717
  700.00      -0.8701023874454
  800.00      -0.8753129739753
  900.00      -0.8809682923287
 1000.00      -0.8870242205092
 1100.00      -0.8934441726919
 1200.00      -0.9001974269239
 1300.00      -0.9072578789575
 1400.00      -0.9146031084206
 1500.00      -0.9222136715086
 1600.00      -0.9300725585350
 1700.00      -0.9381647725802
 1800.00      -0.9464769981349
 1900.00      -0.9549973374509
 2000.00      -0.9637150984617
 2100.00      -0.9726206224456
 2200.00      -0.9817051426647
 2300.00      -0.9909606673999
 2400.00      -1.0003798823922
 2500.00      -1.0099560688631
 2600.00      -1.0196830341492
 2700.00      -1.0295550526334
 2800.00      -1.0395668151437
 2900.00      -1.0497133853644
 3000.00      -1.0599901620918
 3100.00      -1.0703928463936
 3200.00      -1.0809174129030
 3300.00      -1.0915600846201
 3400.00      -1.1023173107039
 3500.00      -1.1131857468247
 3600.00      -1.1241622377203
 3700.00      -1.1352438016563
 3800.00      -1.1464276165388
 3900.00      -1.1577110074653
 4000.00      -1.1690914355344
 4100.00      -1.1805664877579
 4200.00      -1.1921338679444
 4300.00      -1.2037913884401
 4400.00      -1.2155369626284
 4500.00      -1.2273685981034
 4600.00      -1.2392843904437
 4700.00      -1.2512825175220
 4800.00      -1.2633612342937
 4900.00      -1.2755188680160
 5000.00      -1.2877538138533
 5100.00      -1.3000645308317
 5200.00      -1.3124495381072
 5300.00      -1.3249074115191
 5400.00      -1.3374367804017
 5500.00      -1.3500363246298
 5600.00      -1.3627047718783
 5700.00      -1.3754408950749
 5800.00      -1.3882435100319
 5900.00      -1.4011114732391
 6000.00      -1.4140436798057
# V= 139.6910000000000
    0.00      -0.8403736948859
  100.00      -0.8405193979003
  200.00      -0.8414589260734
  300.00      -0.8433057521225
  400.00      -0.8459860175949
  500.00      -0.8494006090127
  600.00      -0.8534554645155
  700.00      -0.8580712103086
  800.00      -0.8631829667470
  900.00      -0.8687378111210
 1000.00      -0.8746922203044
 1100.00      -0.8810099941402
 1200.00      -0.8876606663855
 1300.00      -0.8946183064678
 1400.00      -0.9018606142943
 1500.00      -0.9093682306486
 1600.00      -0.9171242060184
 1700.00      -0.9251135866237
 1800.00      -0.9333230880012
 1900.00      -0.9417408347366
 2000.00      -0.9503561507392
 2100.00      -0.9591593885740
 2200.00      -0.9681417892992
 2300.00      -0.9772953663746
 2400.00      -0.9866128087461
 2500.00      -0.9960873993453
 2600.00      -1.0057129460837
 2700.00      -1.0154837230569
 2800.00      -1.0253944201514
 2900.00      -1.0354400996152
 3000.00      -1.0456161584378
 3100.00      -1.0559182956044
 3200.00      -1.0663424834650
 3300.00      -1.0768849425942
 3400.00      -1.0875421196282
 3500.00      -1.0983106676533
 3600.00      -1.1091874287899
 3700.00      -1.1201694186748
 3800.00      -1.1312538125906
 3900.00      -1.1424379330302
 4000.00      -1.1537192385165
 4100.00      -1.1650953135224
 4200.00      -1.1765638593605
 4300.00      -1.1881226859276
 4400.00      -1.1997697042082
 4500.00      -1.2115029194497
 4600.00      -1.2233204249375
 4700.00      -1.2352203963057
 4800.00      -1.2472010863255
 4900.00      -1.2592608201245
 5000.00      -1.2713979907916
 5100.00      -1.2836110553306
 5200.00      -1.2958985309274
 5300.00      -1.3082589915030
 5400.00      -1.3206910645235
 5500.00      -1.3331934280446
 5600.00      -1.3457648079696
 5700.00      -1.3584039755016
 5800.00      -1.3711097447731
 5900.00      -1.3838809706382
 6000.00      -1.3967165466131
# V= 135.3720000000000
    0.00      -0.8260318441647
  100.00      -0.8261900112383
  200.00      -0.8271559440398
  300.00      -0.8290121483623
  400.00      -0.8316829471359
  500.00      -0.8350749501144
  600.00      -0.8390985903643
  700.00      -0.8436773079991
  800.00      -0.8487479581271
  900.00      -0.8542587184335
 1000.00      -0.8601667902191
 1100.00      -0.8664364679090
 1200.00      -0.8730376342805
 1300.00      -0.8799446124033
 1400.00      -0.8871352913503
 1500.00      -0.8945904562435
 1600.00      -0.9022932699523
 1700.00      -0.9102288677782
 1800.00      -0.9183840370091
 1900.00      -0.9267469608548
 2000.00      -0.9353070117440
 2100.00      -0.9440545828670
 2200.00      -0.9529809496566
 2300.00      -0.9620781549383
 2400.00      -0.9713389129638
 2500.00      -0.9807565286462
 2600.00      -0.9903248291310
 2700.00      -1.0000381054570
 2800.00      -1.0098910625282
 2900.00      -1.0198787759798
 3000.00      -1.0299966547980
 3100.00      -1.0402404087714
 3200.00      -1.0506060200230
 3300.00      -1.0610897180056
 3400.00      -1.0716879574528
 3500.00      -1.0823973988629
 3600.00      -1.0932148911645
 3700.00      -1.1041374562677
 3800.00      -1.1151622752532
 3900.00      -1.1262866759882
 4000.00      -1.1375081219895
 4100.00      -1.1488242023827
 4200.00      -1.1602326228249
 4300.00      -1.1717311972793
 4400.00      -1.1833178405434
 4500.00      -1.1949905614478
 4600.00      -1.2067474566515
 4700.00      -1.2185867049701
 4800.00      -1.2305065621802
 4900.00      -1.2425053562534
 5000.00      -1.2545814829732
 5100.00      -1.2667334019008
 5200.00      -1.2789596326524
 5300.00      -1.2912587514613
 5400.00      -1.3036293879965
 5500.00      -1.3160702224150
 5600.00      -1.3285799826267
 5700.00      -1.3411574417528
 5800.00      -1.3538014157612
 5900.00      -1.3665107612643
 6000.00      -1.3792843734639
# V= 131.0530000000000
    0.00      -0.8080051170742
  100.00      -0.8081679342894
  200.00      -0.8091337656987
  300.00      -0.8109683036749
  400.00      -0.8135982020728
  500.00      -0.8169365441054
  600.00      -0.8208984703628
  700.00      -0.8254103026568
  800.00      -0.8304106403426
  900.00      -0.8358487452136
 1000.00      -0.8416825157596
 1100.00      -0.8478767099064
 1200.00      -0.8544015279488
 1300.00      -0.8612315162767
 1400.00      -0.8683447246797
 1500.00      -0.8757220562749
 1600.00      -0.8833467620779
 1700.00      -0.8912040442434
 1800.00      -0.8992807414359
 1900.00      -0.9075650768064
 2000.00      -0.9160464541483
 2100.00      -0.9247152914983
 2200.00      -0.9335628841223
 2300.00      -0.9425812907807
 2400.00      -0.9517632385994
