# T (K)      Entropy-ph (J K^-1 mol^-1)
# V = 60.667600 (a.u.^3)
    5.0       1.8080321701386
   50.0      65.2465284222555
  100.0      98.6251289988842
  150.0     118.6247753947354
  200.0     132.8962039200787
  250.0     143.9909711556238
  300.0     153.0662115477087
  350.0     160.7441108619970
  400.0     167.3976543766331
  450.0     173.2680491538745
  500.0     178.5202682461602
  550.0     183.2721175017835
  600.0     187.6106534489378
  650.0     191.6020291001755
  700.0     195.2976908225253
  750.0     198.7384371718436
  800.0     201.9571677938261
  850.0     204.9807989716830
  900.0     207.8316316692855
  950.0     210.5283497094728
 1000.0     213.0867619326389
 1050.0     215.5203632922463
 1100.0     217.8407654311766
 1150.0     220.0580315532000
 1200.0     222.1809400307662
 1250.0     224.2171942052665
 1300.0     226.1735910429732
 1350.0     228.0561579640667
 1400.0     229.8702647900246
 1450.0     231.6207160484487
 1500.0     233.3118276310294
 1550.0     234.9474908831485
 1600.0     236.5312265194070
 1650.0     238.0662302435950
 1700.0     239.5554115590525
 1750.0     241.0014269538265
 1800.0     242.4067084114508
 1850.0     243.7734880158383
 1900.0     245.1038192752472
 1950.0     246.3995956767207
 2000.0     247.6625668916790
 2050.0     248.8943529807087
 2100.0     250.0964568868144
 2150.0     251.2702754587888
 2200.0     252.4171092074606
 2250.0     253.5381709656721
 2300.0     254.6345935965657
 2350.0     255.7074368729735
 2400.0     256.7576936326378
 2450.0     257.7862952988330
 2500.0     258.7941168433310
 2550.0     259.7819812579622
 2600.0     260.7506635920253
 2650.0     261.7008946051681
 2700.0     262.6333640788659
 2750.0     263.5487238240790
 2800.0     264.4475904179547
 2850.0     265.3305476983087
 2900.0     266.1981490412186
 2950.0     267.0509194439229
 3000.0     267.8893574326967
 3050.0     268.7139368130281
 3100.0     269.5251082775234
 3150.0     270.3233008851569
 3200.0     271.1089234240541
 3250.0     271.8823656686213
 3300.0     272.6439995407149
 3350.0     273.3941801834940
 3400.0     274.1332469557466
 3450.0     274.8615243536034
 3500.0     275.5793228659717
 3550.0     276.2869397692794
 3600.0     276.9846598666541
 3650.0     277.6727561761016
 3700.0     278.3514905719028
 3750.0     279.0211143829279
 3800.0     279.6818689513510
 3850.0     280.3339861548349
 3900.0     280.9776888950288
 3950.0     281.6131915549558
 4000.0     282.2407004276204
 4050.0     282.8604141180103
 4100.0     283.4725239204233
 4150.0     284.0772141729296
 4200.0     284.6746625906088
 4250.0     285.2650405790725
 4300.0     285.8485135296403
 4350.0     286.4252410974634
 4400.0     286.9953774637521
 4450.0     287.5590715831943
 4500.0     288.1164674175337
 4550.0     288.6677041562675
 4600.0     289.2129164252583
 4650.0     289.7522344840954
 4700.0     290.2857844128799
 4750.0     290.8136882891424
 4800.0     291.3360643554855
 4850.0     291.8530271785489
 4900.0     292.3646877998193
 4950.0     292.8711538787869
 5000.0     293.3725298289033
# V = 59.857800 (a.u.^3)
    5.0       1.7713210241648
   50.0      64.6624237020611
  100.0      98.0073461523238
  150.0     118.0004313461063
  200.0     132.2695383626062
  250.0     143.3632266289279
  300.0     152.4378797361580
  350.0     160.1154245377618
  400.0     166.7687378015946
  450.0     172.6389746490453
  500.0     177.8910807409427
  550.0     182.6428463715592
  600.0     186.9813187057136
  650.0     190.9726448460081
  700.0     194.6682672801874
  750.0     198.1089819323672
  800.0     201.3276866118730
  850.0     204.3512962889968
  900.0     207.2021109687929
  950.0     209.8988137606874
 1000.0     212.4572129653733
 1050.0     214.8908031219416
 1100.0     217.2111955508574
 1150.0     219.4284532019952
 1200.0     221.5513542456596
 1250.0     223.5876018607003
 1300.0     225.5439928814864
 1350.0     227.4265546202556
 1400.0     229.2406568094655
 1450.0     230.9911039027751
 1500.0     232.6822117300489
 1550.0     234.3178715846483
 1600.0     235.9016041371491
 1650.0     237.4366050538905
 1700.0     238.9257838061830
 1750.0     240.3717968545524
 1800.0     241.7770761587830
 1850.0     243.1438537822007
 1900.0     244.4741832151524
 1950.0     245.7699579290318
 2000.0     247.0329275815475
 2050.0     248.2647122212212
 2100.0     249.4668147804127
 2150.0     250.6406320984951
 2200.0     251.7874646779336
 2250.0     252.9085253441256
 2300.0     254.0049469535722
 2350.0     255.0777892731608
 2400.0     256.1280451353000
 2450.0     257.1566459584737
 2500.0     258.1644667101345
 2550.0     259.1523303782143
 2600.0     260.1210120084818
 2650.0     261.0712423573888
 2700.0     262.0037112035038
 2750.0     262.9190703551483
 2800.0     263.8179363870543
 2850.0     264.7008931348421
 2900.0     265.5684939725770
 2950.0     266.4212638956553
 3000.0     267.2597014286595
 3050.0     268.0842803755273
 3100.0     268.8954514274341
 3150.0     269.6936436420432
 3200.0     270.4792658062615
 3250.0     271.2527076933750
 3300.0     272.0143412242024
 3350.0     272.7645215409455
 3400.0     273.5035880014979
 3450.0     274.2318651011665
 3500.0     274.9496633280924
 3550.0     275.6572799579906
 3600.0     276.3549997933187
 3650.0     277.0430958514697
 3700.0     277.7218300061426
 3750.0     278.3914535856703
 3800.0     279.0522079317210
 3850.0     279.7043249214884
 3900.0     280.3480274561773
 3950.0     280.9835299184003
 4000.0     281.6110386007700
 4050.0     282.2307521079108
 4100.0     282.8428617337825
 4150.0     283.4475518161282
 4200.0     284.0450000697296
 4250.0     284.6353778999095
 4300.0     285.2188506977188
 4350.0     285.7955781180584
 4400.0     286.3657143419005
 4450.0     286.9294083237035
 4500.0     287.4868040250023
 4550.0     288.0380406350869
 4600.0     288.5832527796389
 4650.0     289.1225707180600
 4700.0     289.6561205302832
 4750.0     290.1840242936764
 4800.0     290.7064002506888
 4850.0     291.2233629678145
 4900.0     291.7350234864035
 4950.0     292.2414894658140
 5000.0     292.7428653193728
# V = 59.115500 (a.u.^3)
    5.0       1.7351850599030
   50.0      64.0884968278604
  100.0      97.3995267056752
  150.0     117.3859993774662
  200.0     131.6527659917430
  250.0     142.7453663784620
  300.0     151.8194273171468
  350.0     159.4966146469708
  400.0     166.1496957339389
  450.0     172.0197733288172
  500.0     177.2717654731657
  550.0     182.0234467775780
  600.0     186.3618549652744
  650.0     190.3531311794617
  700.0     194.0487139961012
  750.0     197.4893966855036
  800.0     200.7080752052215
  850.0     203.7316632016028
  900.0     206.5824597128403
  950.0     209.2791471289495
 1000.0     211.8375332063916
 1050.0     214.2711120664001
 1100.0     216.5914947043179
 1150.0     218.8087438139859
 1200.0     220.9316373618706
 1250.0     222.9678783629112
 1300.0     224.9242635184621
 1350.0     226.8068200319138
 1400.0     228.6209175459566
 1450.0     230.3713604396861
 1500.0     232.0624644806174
 1550.0     233.6981209096558
 1600.0     235.2818503529886
 1650.0     236.8168484391834
 1700.0     238.3060246072512
 1750.0     239.7520352899687
 1800.0     241.1573124231728
 1850.0     242.5240880494266
 1900.0     243.8544156410145
 1950.0     245.1501886535542
 2000.0     246.4131567309213
 2050.0     247.6449399094768
 2100.0     248.8470411108456
 2150.0     250.0208571648991
 2200.0     251.1676885656730
 2250.0     252.2887481310577
 2300.0     253.3851687108530
 2350.0     254.4580100659540
 2400.0     255.5082650233934
 2450.0     256.5368649968217
 2500.0     257.5446849493367
 2550.0     258.5325478649372
 2600.0     259.5012287858392
 2650.0     260.4514584652629
 2700.0     261.3839266788537
 2750.0     262.2992852322640
 2800.0     263.1981506977988
 2850.0     264.0811069088612
 2900.0     264.9487072374849
 2950.0     265.8014766772130
 3000.0     266.6399137509179
 3050.0     267.4644922609758
 3100.0     268.2756628971226
 3150.0     269.0738547156884
 3200.0     269.8594765023630
 3250.0     270.6329180292977
 3300.0     271.3945512162672
 3350.0     272.1447312045054
 3400.0     272.8837973510059
 3450.0     273.6120741502471
 3500.0     274.3298720895937
 3550.0     275.0374884440408
 3600.0     275.7352080153752
 3650.0     276.4233038203679
 3700.0     277.1020377321348
 3750.0     277.7716610784627
 3800.0     278.4324152005155
 3850.0     279.0845319750077
 3900.0     279.7282343027029
 3950.0     280.3637365657900
 4000.0     280.9912450564975
 4050.0     281.6109583790783
 4100.0     282.2230678271462
 4150.0     282.8277577381249
 4200.0     283.4252058264872
 4250.0     284.0155834972704
 4300.0     284.5990561412543
 4350.0     285.1757834130835
 4400.0     285.7459194934914
 4450.0     286.3096133367063
 4500.0     286.8670089040509
 4550.0     287.4182453846151
 4600.0     287.9634574038791
 4650.0     288.5027752210713
 4700.0     289.0363249159523
 4750.0     289.5642285657216
 4800.0     290.0866044126775
 4850.0     290.6035670231671
 4900.0     291.1152274384015
 4950.0     291.6216933176049
 5000.0     292.1230690739797
# V = 58.373200 (a.u.^3)
    5.0       1.7017328606495
   50.0      63.5445855113931
  100.0      96.8226114539396
  150.0     116.8026354536416
  200.0     131.0671189201119
  250.0     142.1586579089183
  300.0     151.2321410584349
  350.0     158.9089795844669
  400.0     165.5618341192582
  450.0     171.4317563171373
  500.0     176.6836372713463
  550.0     181.4352362893867
  600.0     185.7735818818279
  650.0     189.7648093768991
  700.0     193.4603535335374
  750.0     196.9010050325137
  800.0     200.1196580244292
  850.0     203.1432248637335
  900.0     205.9940036451544
  950.0     208.6906760567009
 1000.0     211.2490493237642
 1050.0     213.6826171598317
 1100.0     216.0029902429839
 1150.0     218.2202310172199
 1200.0     220.3431172500964
 1250.0     222.3793517966030
 1300.0     224.3357312282990
 1350.0     226.2182826423566
 1400.0     228.0323755938682
 1450.0     229.7828143891683
 1500.0     231.4739147349304
 1550.0     233.1095678208714
 1600.0     234.6932942298577
 1650.0     236.2282895536014
 1700.0     237.7174631995987
 1750.0     239.1634715735447
 1800.0     240.5687465879006
 1850.0     241.9355202649757
 1900.0     243.2658460594272
 1950.0     244.5616174114774
 2000.0     245.8245839515025
 2050.0     247.0563657039964
 2100.0     248.2584655801066
 2150.0     249.4322804004374
 2200.0     250.5791106507919
 2250.0     251.7001691417388
 2300.0     252.7965887165369
 2350.0     253.8694291302352
 2400.0     254.9196832046200
 2450.0     255.9482823486229
 2500.0     256.9561015210928
 2550.0     257.9439637021933
 2600.0     258.9126439306665
 2650.0     259.8628729565892
 2700.0     260.7953405527450
 2750.0     261.7106985221874
 2800.0     262.6095634348498
 2850.0     263.4925191219695
 2900.0     264.3601189536053
 2950.0     265.2128879214810
 3000.0     266.0513245468111
 3050.0     266.8759026304414
 3100.0     267.6870728607026
 3150.0     268.4852642926311
 3200.0     269.2708857107183
 3250.0     270.0443268860158
 3300.0     270.8059597372757
 3350.0     271.5561394047891
 3400.0     272.2952052446735
 3450.0     273.0234817505913
 3500.0     273.7412794091550
 3550.0     274.4488954946566
 3600.0     275.1466148082325
 3650.0     275.8347103660375
 3700.0     276.5134440406244
 3750.0     277.1830671592476
 3800.0     277.8438210625750
 3850.0     278.4959376268569
 3900.0     279.1396397524211
 3950.0     279.7751418210531
 4000.0     280.4026501245950
 4050.0     281.0223632669463
 4100.0     281.6344725413784
 4150.0     282.2391622850024
 4200.0     282.8366102119920
 4250.0     283.4269877271053
 4300.0     284.0104602208574
 4350.0     284.5871873476429
 4400.0     285.1573232879595
 4450.0     285.7210169958191
 4500.0     286.2784124323267
 4550.0     286.8296487863799
 4600.0     287.3748606832715
 4650.0     287.9141783820498
 4700.0     288.4477279623068
 4750.0     288.9756315010886
 4800.0     289.4980072405366
 4850.0     290.0149697468579
 4900.0     290.5266300611231
 4950.0     291.0330958424348
 5000.0     291.5344715038699
# V = 57.630800 (a.u.^3)
    5.0       1.6729130577534
   50.0      63.0325291495105
  100.0      96.2783053923645
  150.0     116.2520181717874
  200.0     130.5142663837188
  250.0     141.6047660995077
  300.0     150.6776834648897
  350.0     158.3541804200120
  400.0     165.0068130939287
  450.0     170.8765831091791
  500.0     176.1283551710819
  550.0     180.8798736018462
  600.0     185.2181578905066
  650.0     189.2093376708548
  700.0     192.9048439638821
  750.0     196.3454649144319
  800.0     199.5640929035571
  850.0     202.5876390205350
  900.0     205.4384004361364
  950.0     208.1350581508801
 1000.0     210.6934188700698
 1050.0     213.1269759078633
 1100.0     215.4473396316344
 1150.0     217.6645722407026
 1200.0     219.7874513078193
 1250.0     221.8236795313298
 1300.0     223.7800533556719
 1350.0     225.6625997739925
 1400.0     227.4766882555930
 1450.0     229.2271230355472
 1500.0     230.9182197609409
 1550.0     232.5538695713574
 1600.0     234.1375930072376
 1650.0     235.6725856241954
 1700.0     237.1617567988575
 1750.0     238.6077629103969
 1800.0     240.0130358483846
 1850.0     241.3798076152889
 1900.0     242.7101316485036
 1950.0     244.0059013731678
 2000.0     245.2688664064447
 2050.0     246.5006467611940
 2100.0     247.7027453383107
 2150.0     248.8765589493159
 2200.0     250.0233880719540
 2250.0     251.1444455096153
 2300.0     252.2408640991606
 2350.0     253.3137035899063
 2400.0     254.3639567984995
 2450.0     255.3925551292533
 2500.0     256.4003735368551
 2550.0     257.3882349977086
 2600.0     258.3569145471543
 2650.0     259.3071429321885
 2700.0     260.2396099227946
 2750.0     261.1549673194772
 2800.0     262.0538316898490
 2850.0     262.9367868630258
 2900.0     263.8043862071282
 2950.0     264.6571547121035
 3000.0     265.4955908975381
 3050.0     266.3201685627787
 3100.0     267.1313383947802
 3150.0     267.9295294473104
 3200.0     268.7151505036895
 3250.0     269.4885913338900
 3300.0     270.2502238556636
 3350.0     271.0004032083740
 3400.0     271.7394687472834
 3450.0     272.4677449652571
 3500.0     273.1855423481658
 3550.0     273.8931581696161
 3600.0     274.5908772301012
 3650.0     275.2789725451831
 3700.0     275.9577059868520
 3750.0     276.6273288818462
 3800.0     277.2880825703475
 3850.0     277.9401989281486
 3900.0     278.5839008551558
 3950.0     279.2194027327516
 4000.0     279.8469108524072
 4050.0     280.4666238176675
 4100.0     281.0787329214783
 4150.0     281.6834225006368
 4200.0     282.2808702690286
 4250.0     282.8712476311310
 4300.0     283.4547199772075
 4350.0     284.0314469614056
 4400.0     284.6015827639904
 4450.0     285.1652763387590
 4500.0     285.7226716466116
 4550.0     286.2739078762500
 4600.0     286.8191196527835
 4650.0     287.3584372350887
 4700.0     287.8919867025912
 4750.0     288.4198901321787
 4800.0     288.9422657658500
 4850.0     289.4592281696665
 4900.0     289.9708883845731
 4950.0     290.4773540695400
 5000.0     290.9787296375216
# V = 56.956000 (a.u.^3)
    5.0       1.6488377669445
   50.0      62.5473198132741
  100.0      95.7613108382638
  150.0     115.7287934364891
  200.0     129.9888343280132
  250.0     141.0783076192607
  300.0     150.1506661562933
  350.0     157.8268257253542
  400.0     164.4792392499888
  450.0     170.3488589390470
  500.0     175.6005234348275
  550.0     180.3519622583152
  600.0     184.6901859876293
  650.0     188.6813186318614
  700.0     192.3767875197701
  750.0     195.8173782912719
  800.0     199.0359815794749
  850.0     202.0595072239245
  900.0     204.9102514827036
  950.0     207.6068946772213
 1000.0     210.1652429990247
 1050.0     212.5987893678099
 1100.0     214.9191438440270
 1150.0     217.1363683852856
 1200.0     219.2592403719065
 1250.0     221.2954623474905
 1300.0     223.2518306309004
 1350.0     225.1343721125203
 1400.0     226.9484561769019
 1450.0     228.6988869887229
 1500.0     230.3899801362062
 1550.0     232.0256267094037
 1600.0     233.6093472068479
 1650.0     235.1443371484909
 1700.0     236.6335058804656
 1750.0     238.0795097557414
 1800.0     239.4847806412758
 1850.0     240.8515505199371
 1900.0     242.1818728120616
 1950.0     243.4776409278916
 2000.0     244.7406044715304
 2050.0     245.9723834443531
 2100.0     247.1744807371166
 2150.0     248.3482931523713
 2200.0     249.4951211598983
 2250.0     250.6161775560028
 2300.0     251.7125951712148
 2350.0     252.7854337491926
 2400.0     253.8356861015055
 2450.0     254.8642836279030
 2500.0     255.8721012789587
 2550.0     256.8599620273625
 2600.0     257.8286409050972
 2650.0     258.7788686561128
 2700.0     259.7113350476232
 2750.0     260.6266918776201
 2800.0     261.5255557114183
 2850.0     262.4085103760420
 2900.0     263.2761092376917
 2950.0     264.1288772845634
 3000.0     264.9673130346312
 3050.0     265.7918902857644
 3100.0     266.6030597235554
 3150.0     267.4012504005188
 3200.0     268.1868710988213
 3250.0     268.9603115873633
 3300.0     269.7219437829112
 3350.0     270.4721228239128
 3400.0     271.2111880647817
 3450.0     271.9394639975954
 3500.0     272.6572611074987
 3550.0     273.3648766674143
 3600.0     274.0625954772026
 3650.0     274.7506905518348
 3700.0     275.4294237627529
 3750.0     276.0990464361822
 3800.0     276.7597999118169
 3850.0     277.4119160650095
 3900.0     278.0556177952401
 3950.0     278.6911194834983
 4000.0     279.3186274208864
 4050.0     279.9383402106019
 4100.0     280.5504491452639
 4150.0     281.1551385613608
 4200.0     281.7525861724938
 4250.0     282.3429633828678
 4300.0     282.9264355824878
 4350.0     283.5031624252616
 4400.0     284.0732980912309
 4450.0     284.6369915339715
 4500.0     285.1943867141843
 4550.0     285.7456228203783
 4600.0     286.2908344774800
 4650.0     286.8301519441957
 4700.0     287.3637012997894
 4750.0     287.8916046209917
 4800.0     288.4139801496556
 4850.0     288.9309424517078
 4900.0     289.4426025679568
 4950.0     289.9490681572475
 5000.0     290.4504436324207
# V = 56.348700 (a.u.^3)
    5.0       1.6296621239216
   50.0      62.0897335454750
  100.0      95.2724530068373
  150.0     115.2337961778422
  200.0     129.4916611275279
  250.0     140.5801224436562
  300.0     149.6519299788829
  350.0     157.3277568717307
  400.0     163.9799542991227
  450.0     169.8494257515019
  500.0     175.1009841737520
  550.0     179.8523444928117
  600.0     184.1905085004163
  650.0     188.1815946594560
  700.0     191.8770266579477
  750.0     195.3175876657665
  800.0     198.5361665924125
  850.0     201.5596720450832
  900.0     204.4103993818625
  950.0     207.1070282544848
 1000.0     209.6653643478742
 1050.0     212.0989001927420
 1100.0     214.4192455468672
 1150.0     216.6364621295090
 1200.0     218.7593271312163
 1250.0     220.7955429429901
 1300.0     222.7519057598622
 1350.0     224.6344423708695
 1400.0     226.4485220769869
 1450.0     228.1989489734710
 1500.0     229.8900385904913
 1550.0     231.5256819692586
 1600.0     233.1093995669686
 1650.0     234.6443868684064
 1700.0     236.1335531896300
 1750.0     237.5795548577672
 1800.0     238.9848237174733
 1850.0     240.3515917322840
 1900.0     241.6819123057154
 1950.0     242.9776788333164
 2000.0     244.2406409063083
 2050.0     245.4724185147395
 2100.0     246.6745145393704
 2150.0     247.8483257739005
 2200.0     248.9951526802608
 2250.0     250.1162080477624
 2300.0     251.2126247006950
 2350.0     252.2854623771338
 2400.0     253.3357138836417
 2450.0     254.3643106154655
 2500.0     255.3721275191210
 2550.0     256.3599875636361
 2600.0     257.3286657776804
