# T (K)    Entropy (J K^-1 mol^-1)
# P = 600.000000 (GPa)
    0.0      -3.6193905847293
   50.0      61.9587933836175
  100.0      98.0982785658405
  150.0     117.2237275180290
  200.0     131.6970574808611
  250.0     142.7664019294095
  300.0     151.8621977831351
  350.0     159.5038259886539
  400.0     166.1500824661614
  450.0     172.0569129684549
  500.0     177.2997307037755
  550.0     182.0596339223913
  600.0     186.4340665808639
  650.0     190.4014190228055
  700.0     194.1236621523960
  750.0     197.5953558108330
  800.0     200.7308832911679
  850.0     203.7947401829616
  900.0     206.7014960866010
  950.0     209.3748461433240
 1000.0     211.9684609727086
 1050.0     214.3929801898174
 1100.0     216.7173226224680
 1150.0     218.9798242857808
 1200.0     221.0968125465877
 1250.0     223.0935731071056
 1300.0     225.0911967004905
 1350.0     226.9722680822106
 1400.0     228.8561597093671
 1450.0     230.5337146096481
 1500.0     232.3541558538003
 1550.0     233.9943561296383
 1600.0     235.4243215919783
 1650.0     237.0676072116069
 1700.0     238.5445756449497
 1750.0     240.0060672383425
 1800.0     241.4238898484797
 1850.0     242.7862674043433
 1900.0     244.1317360819789
 1950.0     245.4229127029921
 2000.0     246.7300331786807
 2050.0     247.9642856036525
 2100.0     249.1708813695145
 2150.0     250.3849655597276
 2200.0     251.4801147789174
 2250.0     252.7088994107537
 2300.0     253.8248670548758
 2350.0     254.8241295893993
 2400.0     255.8941683390181
 2450.0     256.9241379528436
 2500.0     257.9665583488296
 2550.0     258.9492337502444
 2600.0     259.9403343496865
 2650.0     260.7915064299745
 2700.0     261.7212438257081
 2750.0     262.8072349448469
 2800.0     263.6845547695722
 2850.0     264.5405703321953
 2900.0     265.4352995936133
 2950.0     266.2829034024924
 3000.0     267.1626631553262
 3050.0     267.9693884595307
 3100.0     268.7735504632605
 3150.0     269.5846289879585
 3200.0     270.4010550900431
 3250.0     271.1798196045709
 3300.0     272.0511246266502
 3350.0     272.7353215284537
 3400.0     273.4027378772058
 3450.0     274.2527402586911
 3500.0     274.9404866934862
 3550.0     275.6082879595907
 3600.0     276.3537226491859
 3650.0     277.0555818860684
 3700.0     277.7516497746093
 3750.0     278.4079934411163
 3800.0     279.0890877701208
 3850.0     279.7772328372632
 3900.0     280.3774330768764
 3950.0     281.0711691234938
 4000.0     281.7162237697299
 4050.0     282.2803121737056
 4100.0     283.0914228674616
 4150.0     283.5898931171812
 4200.0     284.0235516020742
 4250.0     284.8219010932024
 4300.0     285.3747440260560
 4350.0     285.9463578343644
 4400.0     286.5561847146324
 4450.0     287.0958781666041
 4500.0     287.6467778191316
 4550.0     288.2447485624434
 4600.0     288.7990036638506
 4650.0     289.3601892936145
 4700.0     289.8811376771040
 4750.0     290.4204516355123
 4800.0     290.9660573851780
 4850.0     291.4940155612890
 4900.0     292.0065456739983
 4950.0     292.5224328786599
 5000.0     293.0964021226707
# P = 602.000000 (GPa)
    0.0      -3.6305132994366
   50.0      61.9210145686340
  100.0      98.0537183327353
  150.0     117.1801179569870
  200.0     131.6526752328100
  250.0     142.7223289671327
  300.0     151.8181500535917
  350.0     159.4586806374689
  400.0     166.1053047211730
  450.0     172.0129353284126
  500.0     177.2548350532362
  550.0     182.0146385391420
  600.0     186.3893729161069
  650.0     190.3565644905226
  700.0     194.0785044463949
  750.0     197.5505368859311
  800.0     200.6849679672606
  850.0     203.7492610173961
  900.0     206.6563857707432
  950.0     209.3289271721558
 1000.0     211.9231805618679
 1050.0     214.3473977978936
 1100.0     216.6715643382716
 1150.0     218.9349961659814
 1200.0     221.0514157659144
 1250.0     223.0462340560368
 1300.0     225.0447100086562
 1350.0     226.9260147571208
 1400.0     228.8117860458017
 1450.0     230.4871040868857
 1500.0     232.3079367607518
 1550.0     233.9522065932898
 1600.0     235.3783491429705
 1650.0     237.0205570781204
 1700.0     238.4986961555468
 1750.0     239.9597226641740
 1800.0     241.3778500891272
 1850.0     242.7390237459602
 1900.0     244.0849463663005
 1950.0     245.3753681739553
 2000.0     246.6836498175324
 2050.0     247.9175197727523
 2100.0     249.1239014023732
 2150.0     250.3393264274779
 2200.0     251.4335085962288
 2250.0     252.6596838886165
 2300.0     253.7761971621072
 2350.0     254.7780068053217
 2400.0     255.8463550133853
 2450.0     256.8763922311468
 2500.0     257.9196929676385
 2550.0     258.9025070673100
 2600.0     259.8918201268604
 2650.0     260.7452880802768
 2700.0     261.6736923483942
 2750.0     262.7627209063924
 2800.0     263.6407115867868
 2850.0     264.4922461041331
 2900.0     265.3872936736557
 2950.0     266.2341651307927
 3000.0     267.1164104828322
 3050.0     267.9201426480925
 3100.0     268.7239530358959
 3150.0     269.5348982789231
 3200.0     270.3529449774754
 3250.0     271.1336522200400
 3300.0     272.0021818459037
 3350.0     272.6896689845441
 3400.0     273.3544460456077
 3450.0     274.2033913196685
 3500.0     274.8921770568018
 3550.0     275.5648603859086
 3600.0     276.3123070478315
 3650.0     277.0071321017611
 3700.0     277.7037128270535
 3750.0     278.3588465191592
 3800.0     279.0394745339580
 3850.0     279.7268643269217
 3900.0     280.3267591926665
 3950.0     281.0227503943214
 4000.0     281.6675385110167
 4050.0     282.2294360440073
 4100.0     283.0394968112117
 4150.0     283.5475875610004
 4200.0     283.9800331679198
 4250.0     284.7712165181509
 4300.0     285.3259858244635
 4350.0     285.8975223743187
 4400.0     286.5077516861846
 4450.0     287.0433833001859
 4500.0     287.5944505957104
 4550.0     288.1952507976960
 4600.0     288.7505369153257
 4650.0     289.3133136778857
 4700.0     289.8276382642361
 4750.0     290.3669647990942
 4800.0     290.9163628800334
 4850.0     291.4430000651389
 4900.0     291.9566026926869
 4950.0     292.4730264697092
 5000.0     293.0443426907694
# P = 604.000000 (GPa)
    0.0      -3.6415586269507
   50.0      61.8834509439774
  100.0      98.0093838110825
  150.0     117.1367110154368
  200.0     131.6085135056326
  250.0     142.6784528518039
  300.0     151.7742858189773
  350.0     159.4138021106604
  400.0     166.0607479940864
  450.0     171.9691088859063
  500.0     177.2101629130172
  550.0     181.9698697848482
  600.0     186.3448818665541
  650.0     190.3119126897650
  700.0     194.0335745447344
  750.0     197.5059195331606
  800.0     200.6393133747885
  850.0     203.7040112988047
  900.0     206.6114815245058
  950.0     209.2832659852563
 1000.0     211.8781089139648
 1050.0     214.3020390761093
 1100.0     216.6260364940735
 1150.0     218.8903339851273
 1200.0     221.0062196492520
 1250.0     222.9992219520909
 1300.0     224.9984898687994
 1350.0     226.8800028458297
 1400.0     228.7675319012761
 1450.0     230.4407467447804
 1500.0     232.2619676045228
 1550.0     233.9100225518776
 1600.0     235.3325661627844
 1650.0     236.9737869880234
 1700.0     238.4530089120446
 1750.0     239.9135991055587
 1800.0     241.3320085074425
 1850.0     242.6920487789421
 1900.0     244.0383938780092
 1950.0     245.3281002222044
 2000.0     246.6374744962804
 2050.0     247.8709789328246
 2100.0     249.0771567559292
 2150.0     250.2938414277478
 2200.0     251.3871023403049
 2250.0     252.6108379814992
 2300.0     253.7278620779441
 2350.0     254.7320467298719
 2400.0     255.7988034482360
 2450.0     256.8288978822785
 2500.0     257.8730298995721
 2550.0     258.8559687803128
 2600.0     259.8435941266476
 2650.0     260.6992068909262
 2700.0     261.6263461404189
 2750.0     262.7182726627485
 2800.0     263.5968894542542
 2850.0     264.4441803044123
 2900.0     265.3395272712850
 2950.0     266.1856998017903
 3000.0     267.0703011218075
 3050.0     267.8711897233737
 3100.0     268.6746610669510
 3150.0     269.4854745991084
 3200.0     270.3050594018258
 3250.0     271.0876055114400
 3300.0     271.9535152237686
 3350.0     272.6441115881748
 3400.0     273.3063659686518
 3450.0     274.1543225984764
 3500.0     274.8440850417809
 3550.0     275.5214028101968
 3600.0     276.2707691400897
 3650.0     276.9589020008886
 3700.0     277.6559692756573
 3750.0     278.3099439331430
 3800.0     278.9901267149631
 3850.0     279.6767966875951
 3900.0     280.2763892837094
 3950.0     280.9745338086059
 4000.0     281.6190667951233
 4050.0     282.1788613495164
 4100.0     282.9879433744959
 4150.0     283.5051994588204
 4200.0     283.9364613638403
 4250.0     284.7208285655415
 4300.0     285.2774287744895
 4350.0     285.8488871043365
 4400.0     286.4595033165236
 4450.0     286.9912425172517
 4500.0     287.5424645167698
 4550.0     288.1459725576044
 4600.0     288.7022435192408
 4650.0     289.2665430285587
 4700.0     289.7745198572253
 4750.0     290.3138548866737
 4800.0     290.8668833199201
 4850.0     291.3922525199965
 4900.0     291.9068790292107
 4950.0     292.4238146179091
 5000.0     292.9925932142726
# P = 606.000000 (GPa)
    0.0      -3.6525264087869
   50.0      61.8461011096148
  100.0      97.9652738711240
  150.0     117.0935061062061
  200.0     131.5645712382428
  250.0     142.6347730805441
  300.0     151.7306049198923
  350.0     159.3691881161664
  400.0     166.0164112164958
  450.0     171.9254344178164
  500.0     177.1657131948168
  550.0     181.9253264389017
  600.0     186.3005928103946
  650.0     190.2674629989898
  700.0     193.9888712247490
  750.0     197.4615032469852
  800.0     200.5939175543528
  850.0     203.6589897855935
  900.0     206.5667826732438
  950.0     209.2378606317120
 1000.0     211.8332453091896
 1050.0     214.2569029987000
 1100.0     216.5807379286851
 1150.0     218.8458380955152
 1200.0     220.9612236780683
 1250.0     222.9525332241462
 1300.0     224.9525341897977
 1350.0     226.8342309337596
 1400.0     228.7233988079831
 1450.0     230.3946408758656
 1500.0     232.2162467142329
 1550.0     233.8678091038207
 1600.0     235.2869724241510
 1650.0     236.9272946140257
 1700.0     238.4075137085966
 1750.0     239.8676956408033
 1800.0     241.2863646790605
 1850.0     242.6453404434381
 1900.0     243.9920772905811
 1950.0     245.2811066667625
 2000.0     246.5915066540253
 2050.0     247.8246621109215
 2100.0     249.0306461747302
 2150.0     250.2485111819227
 2200.0     251.3408955704835
 2250.0     252.5623574321984
 2300.0     253.6798583852820
 2350.0     254.6862498380172
 2400.0     255.7515118344537
 2450.0     256.7816533484305
 2500.0     257.8265686890931
 2550.0     258.8096187890077
 2600.0     259.7956540526970
 2650.0     260.6532639016884
 2700.0     261.5792047091720
 2750.0     262.6738927770035
 2800.0     263.5530919213703
 2850.0     264.3963712683853
 2900.0     265.2919991883241
 2950.0     266.1375054548716
 3000.0     267.0243359086249
 3050.0     267.8225272803977
 3100.0     268.6256718818969
 3150.0     269.4363553051408
 3200.0     270.2573975175807
 3250.0     271.0416808351967
 3300.0     271.9051227502648
 3350.0     272.5986512093705
 3400.0     273.2584970357253
 3450.0     274.1055320565727
 3500.0     274.7962099737701
 3550.0     275.4779197264738
 3600.0     276.2291153226801
 3650.0     276.9108907753658
 3700.0     277.6084188667608
 3750.0     278.2612844166071
 3800.0     278.9410426231029
 3850.0     279.6270274644594
 3900.0     280.2263208314085
 3950.0     280.9265189582181
 4000.0     281.5708079856057
 4050.0     282.1285856997291
 4100.0     282.9367587069546
 4150.0     283.4627342114341
 4200.0     283.8928409918315
 4250.0     284.6707348985933
 4300.0     285.2290725011381
 4350.0     285.8004517017640
 4400.0     286.4114395744712
 4450.0     286.9394523734672
 4500.0     287.4908164096198
 4550.0     288.0969131087046
 4600.0     288.6541236845746
 4650.0     289.2198789295470
 4700.0     289.7217785478371
 4750.0     290.2611180703220
 4800.0     290.8176180870743
 4850.0     291.3417712699242
 4900.0     291.8573740138794
 4950.0     292.3747971389499
 5000.0     292.9411511712212
# P = 608.000000 (GPa)
    0.0      -3.6634165024402
   50.0      61.8089637703551
  100.0      97.9213874041437
  150.0     117.0505025559336
  200.0     131.5208473203627
  250.0     142.5912891463075
  300.0     151.6871072159065
  350.0     159.3248364656991
  400.0     165.9722933856036
  450.0     171.8819126270523
  500.0     177.1214847445619
  550.0     181.8810072751581
  600.0     186.2565051355907
  650.0     190.2232148612894
  700.0     193.9443933521217
  750.0     197.4172874928056
  800.0     200.5487784811039
  850.0     203.6141952218443
  900.0     206.5222885475690
  950.0     209.1927092184493
 1000.0     211.7885891157952
 1050.0     214.2119885406470
 1100.0     216.5356674094871
 1150.0     218.8015088135083
 1200.0     220.9164273346879
 1250.0     222.9061643606106
 1300.0     224.9068409789355
 1350.0     226.7886976278137
 1400.0     228.6793882070222
 1450.0     230.3487847522425
 1500.0     232.1707724308436
 1550.0     233.8255713094078
 1600.0     235.2415677707245
 1650.0     236.8810776819331
 1700.0     238.3622102737306
 1750.0     239.8220113121703
 1800.0     241.2409181791527
 1850.0     242.5988967053558
 1900.0     243.9459953525417
 1950.0     245.2343853800841
 2000.0     246.5457456740145
 2050.0     247.7785683010782
 2100.0     248.9843684111481
 2150.0     250.2033363081392
 2200.0     251.2948879077041
 2250.0     252.5142380557330
 2300.0     253.6321826409844
 2350.0     254.6406165629371
 2400.0     255.7044783772143
 2450.0     256.7346570903733
 2500.0     257.7803089405871
 2550.0     258.7634570190446
 2600.0     259.7479975731437
 2650.0     260.6074601099614
 2700.0     261.5322675656995
 2750.0     262.6295837880256
 2800.0     263.5093225534704
 2850.0     264.3488173762196
 2900.0     265.2447081853383
 2950.0     266.0895801157130
 3000.0     266.9785156703792
 3050.0     267.7741529395586
 3100.0     268.5769828837721
 3150.0     269.3875377894519
 3200.0     270.2099584335671
 3250.0     270.9958795174086
 3300.0     271.8570024320298
 3350.0     272.5532897058656
 3400.0     273.2108386918670
 3450.0     274.0570176777883
 3500.0     274.7485511333646
 3550.0     275.4344155751024
 3600.0     276.1873519310289
 3650.0     276.8630976283293
 3700.0     277.5610613958871
 3750.0     278.2128667193679
 3800.0     278.8922205359510
 3850.0     279.5775542144511
 3900.0     280.1765513368589
 3950.0     280.8787054530307
 4000.0     281.5227614946224
 4050.0     282.0786067070093
 4100.0     282.8859389534582
 4150.0     283.4201971711156
 4200.0     283.8491768032838
 4250.0     284.6209332214275
 4300.0     285.1809166691296
 4350.0     285.7522158233342
 4400.0     286.3635603981925
 4450.0     286.8880094579520
 4500.0     287.4395031268594
 4550.0     288.0480717569659
 4600.0     288.6061776341962
 4650.0     289.1733229111579
 4700.0     289.6694104431930
 4750.0     290.2087505495620
 4800.0     290.7685665727539
 4850.0     291.2915547089523
 4900.0     291.8080869839948
 4950.0     292.3259738202498
 5000.0     292.8900141313198
# P = 610.000000 (GPa)
    0.0      -3.6742287183411
   50.0      61.7720375588907
  100.0      97.8777232331074
  150.0     117.0076996757635
  200.0     131.4773406585797
  250.0     142.5480006097489
  300.0     151.6437926544479
  350.0     159.2807449656150
  400.0     165.9283934141456
  450.0     171.8385441718071
  500.0     177.0774764160235
  550.0     181.8369111139197
  600.0     186.2126183250843
  650.0     190.1791677428631
  700.0     193.9001397176083
  750.0     197.3732716859334
  800.0     200.5038941423955
  850.0     203.5696263784289
  900.0     206.4779985617031
  950.0     209.1478099180149
 1000.0     211.7441396395264
 1050.0     214.1672946210443
 1100.0     216.4908237048863
 1150.0     218.7573464559067
 1200.0     220.8718301670785
 1250.0     222.8601119474484
 1300.0     224.8614082133621
 1350.0     226.7434014773993
 1400.0     228.6355015113859
 1450.0     230.3031766630410
 1500.0     232.1255431546542
 1550.0     233.7833142510198
 1600.0     235.1963520229881
 1650.0     236.8351338642279
 1700.0     238.3170983179958
 1750.0     239.7765451683093
 1800.0     241.1956686169246
 1850.0     242.5527156216492
 1900.0     243.9001468135731
 1950.0     245.1879341819671
 2000.0     246.5001909231343
 2050.0     247.7326965043697
 2100.0     248.9383222524887
 2150.0     250.1583174864969
 2200.0     251.2490789724106
 2250.0     252.4664756373426
 2300.0     253.5848314128563
 2350.0     254.5951473308265
 2400.0     255.6577013204507
 2450.0     256.6879076476564
 2500.0     257.7342502533729
 2550.0     258.7174833328867
 2600.0     259.7006223614605
 2650.0     260.5617964998766
 2700.0     261.4855342454661
 2750.0     262.5853482702295
 2800.0     263.4655848774469
 2850.0     264.3015169641591
 2900.0     265.1976530160601
 2950.0     266.0419218255162
 3000.0     266.9328412414324
 3050.0     267.7260644002193
 3100.0     268.5285914909882
 3150.0     269.3390194125870
 3200.0     270.1627412573843
 3250.0     270.9502028677078
 3300.0     271.8091523147669
 3350.0     272.5080289696087
 3400.0     273.1633903677881
 3450.0     274.0087774149651
 3500.0     274.7011078029284
 3550.0     275.3908947509951
 3600.0     276.1454852573852
 3650.0     276.8155218192196
 3700.0     277.5138966488242
 3750.0     278.1646895546696
 3800.0     278.8436587408685
 3850.0     279.5283745121470
 3900.0     280.1270783493219
 3950.0     280.8310929453596
 4000.0     281.4749267099493
 4050.0     282.0289219703080
 4100.0     282.8354802949887
 4150.0     283.3775936355016
 4200.0     283.8054735352868
 4250.0     284.5714212900083
 4300.0     285.1329609126907
 4350.0     285.7041791013042
 4400.0     286.3158657267356
 4450.0     286.8369103881780
 4500.0     287.3885215876434
 4550.0     287.9994478240369
 4600.0     288.5584055498049
 4650.0     289.1268764816554
 4700.0     289.6174116835682
 4750.0     290.1567485692909
 4800.0     290.7197282087571
 4850.0     291.2416012285576
 4900.0     291.7590172451785
 4950.0     292.2773444513473
 5000.0     292.8391796606109
# P = 612.000000 (GPa)
    0.0      -3.6849629085997
   50.0      61.7353210977199
  100.0      97.8342801876883
  150.0     116.9650968292937
  200.0     131.4340502666122
  250.0     142.5049070537849
  300.0     151.6006610916421
  350.0     159.2369113781725
  400.0     165.8847102144029
  450.0     171.7953297204901
  500.0     177.0336871544033
  550.0     181.7930368493551
  600.0     186.1689318058428
  650.0     190.1353210329901
  700.0     193.8561091024013
  750.0     197.3294552494312
  800.0     200.4592626006594
  850.0     203.5252821209195
  900.0     206.4339121098267
  950.0     209.1031608326324
 1000.0     211.6998961607193
 1050.0     214.1228201664041
 1100.0     216.4462056283259
 1150.0     218.7133514203409
 1200.0     220.8274317347410
 1250.0     222.8143725197125
 1300.0     224.8162338464321
 1350.0     226.6983410417840
 1400.0     228.5917401369748
 1450.0     230.2578149901566
 1500.0     232.0805573329353
 1550.0     233.7410428917800
 1600.0     235.1513249511201
 1650.0     236.7894608473850
 1700.0     238.2721775608522
 1750.0     239.7312963288280
 1800.0     241.1506156549166
 1850.0     242.5067952102731
 1900.0     243.8545303764794
 1950.0     245.1417509060273
 2000.0     246.4548417747340
 2050.0     247.6870457850726
 2100.0     248.8925065516693
 2150.0     250.1134553421897
 2200.0     251.2034683303981
 2250.0     252.4190659942550
 2300.0     253.5378013001631
 2350.0     254.5498426112825
 2400.0     255.6111789766942
 2450.0     256.6414035281355
 2500.0     257.6883921767180
 2550.0     258.6716975888273
 2600.0     259.6535261110979
 2650.0     260.5162740888763
