# T (K)               Helmholtz Free Energy (Ry.)
# V=  60.6676000000000
    0.00      -0.2011645696908
   50.00      -0.2023968722446
  100.00      -0.2055838887030
  150.00      -0.2097449422083
  200.00      -0.2145464127225
  250.00      -0.2198260994963
  300.00      -0.2254878337616
  350.00      -0.2314666550623
  400.00      -0.2377182167731
  450.00      -0.2442047589333
  500.00      -0.2509045921024
  550.00      -0.2577940226266
  600.00      -0.2648575469846
  650.00      -0.2720785176807
  700.00      -0.2794457832964
  750.00      -0.2869500896169
  800.00      -0.2945799104950
  850.00      -0.3023273464196
  900.00      -0.3101880833230
  950.00      -0.3181545694035
 1000.00      -0.3262212437901
 1050.00      -0.3343824975014
 1100.00      -0.3426342118777
 1150.00      -0.3509721626103
 1200.00      -0.3593928948224
 1250.00      -0.3678931459919
 1300.00      -0.3764701620699
 1350.00      -0.3851193466593
 1400.00      -0.3938385300590
 1450.00      -0.4026253077856
 1500.00      -0.4114787194435
 1550.00      -0.4203980732061
 1600.00      -0.4293696693805
 1650.00      -0.4384074568044
 1700.00      -0.4475016269021
 1750.00      -0.4566516697744
 1800.00      -0.4658561082417
 1850.00      -0.4751133216419
 1900.00      -0.4844226381759
 1950.00      -0.4937810334998
 2000.00      -0.5031891434771
 2050.00      -0.5126439491401
 2100.00      -0.5221459197171
 2150.00      -0.5316922528359
 2200.00      -0.5412828594968
 2250.00      -0.5509166276449
 2300.00      -0.5606002861078
 2350.00      -0.5703174666901
 2400.00      -0.5800758136269
 2450.00      -0.5898734499685
 2500.00      -0.5997101864734
 2550.00      -0.6095844386028
 2600.00      -0.6194961223080
 2650.00      -0.6294443811764
 2700.00      -0.6394211461764
 2750.00      -0.6494403728324
 2800.00      -0.6594918422258
 2850.00      -0.6695792122431
 2900.00      -0.6796999520862
 2950.00      -0.6898544357318
 3000.00      -0.7000399103375
 3050.00      -0.7102578608286
 3100.00      -0.7205068919840
 3150.00      -0.7307862808596
 3200.00      -0.7410959384634
 3250.00      -0.7514344929466
 3300.00      -0.7618029786691
 3350.00      -0.7722047375976
 3400.00      -0.7826252369472
 3450.00      -0.7930809852088
 3500.00      -0.8035621140420
 3550.00      -0.8140698216323
 3600.00      -0.8245986253654
 3650.00      -0.8351599754248
 3700.00      -0.8457461140026
 3750.00      -0.8563602332599
 3800.00      -0.8669970199209
 3850.00      -0.8776624988452
 3900.00      -0.8883500955448
 3950.00      -0.8990626615708
 4000.00      -0.9097993028508
 4050.00      -0.9205598765369
 4100.00      -0.9313439759443
 4150.00      -0.9421580174757
 4200.00      -0.9529783262994
 4250.00      -0.9638303643305
 4300.00      -0.9747060757329
 4350.00      -0.9856027027896
 4400.00      -0.9965211660250
 4450.00      -1.0074622848753
 4500.00      -1.0184234101250
 4550.00      -1.0294060944440
 4600.00      -1.0404096431742
 4650.00      -1.0514337001990
 4700.00      -1.0624785234787
 4750.00      -1.0735439414236
 4800.00      -1.0846289770264
 4850.00      -1.0957337911771
 4900.00      -1.1068582268365
 4950.00      -1.1180012629976
 5000.00      -1.1291648073639
# V=  60.5892101010101
    0.00      -0.1982326387238
   50.00      -0.1994635108028
  100.00      -0.2026482120840
  150.00      -0.2068069477488
  200.00      -0.2116060857925
  250.00      -0.2168834194025
  300.00      -0.2225428814736
  350.00      -0.2285193415736
  400.00      -0.2347684356948
  450.00      -0.2412527266154
  500.00      -0.2479502655949
  550.00      -0.2548372941757
  600.00      -0.2618984848298
  650.00      -0.2691171193450
  700.00      -0.2764820461465
  750.00      -0.2839839718240
  800.00      -0.2916114686303
  850.00      -0.2993563949462
  900.00      -0.3072148697069
  950.00      -0.3151789045190
 1000.00      -0.3232432293749
 1050.00      -0.3314021176291
 1100.00      -0.3396514699384
 1150.00      -0.3479870699523
 1200.00      -0.3564055802223
 1250.00      -0.3649033547447
 1300.00      -0.3734778485261
 1350.00      -0.3821246482776
 1400.00      -0.3908414849978
 1450.00      -0.3996261125561
 1500.00      -0.4084769270386
 1550.00      -0.4173942458605
 1600.00      -0.4263637831864
 1650.00      -0.4353990920976
 1700.00      -0.4444909204706
 1750.00      -0.4536386226193
 1800.00      -0.4628407176628
 1850.00      -0.4720955864733
 1900.00      -0.4814024279673
 1950.00      -0.4907584885934
 2000.00      -0.5001640929463
 2050.00      -0.5096166930094
 2100.00      -0.5191161550224
 2150.00      -0.5286602946577
 2200.00      -0.5382485458514
 2250.00      -0.5478799638828
 2300.00      -0.5575609081161
 2350.00      -0.5672758205379
 2400.00      -0.5770317808952
 2450.00      -0.5868270314148
 2500.00      -0.5966613781289
 2550.00      -0.6065333668016
 2600.00      -0.6164426628634
 2650.00      -0.6263885307665
 2700.00      -0.6363631166268
 2750.00      -0.6463799620524
 2800.00      -0.6564295581864
 2850.00      -0.6665145875383
 2900.00      -0.6766329834839
 2950.00      -0.6867850274854
 3000.00      -0.6969681661474
 3050.00      -0.7071838534548
 3100.00      -0.7174303003275
 3150.00      -0.7277073203368
 3200.00      -0.7380144304143
 3250.00      -0.7483508369919
 3300.00      -0.7587169522945
 3350.00      -0.7691164105022
 3400.00      -0.7795347480793
 3450.00      -0.7899880071452
 3500.00      -0.8004668288020
 3550.00      -0.8109722530081
 3600.00      -0.8214992937366
 3650.00      -0.8320584956383
 3700.00      -0.8426422662370
 3750.00      -0.8532540978417
 3800.00      -0.8638884181958
 3850.00      -0.8745515305729
 3900.00      -0.8852365878857
 3950.00      -0.8959468072905
 4000.00      -0.9066811029456
 4050.00      -0.9174393162298
 4100.00      -0.9282208660349
 4150.00      -0.9390326149031
 4200.00      -0.9498511460818
 4250.00      -0.9607008531846
 4300.00      -0.9715741993381
 4350.00      -0.9824685115843
 4400.00      -0.9933846585624
 4450.00      -1.0043234177355
 4500.00      -1.0152819287075
 4550.00      -1.0262622535186
 4600.00      -1.0372634409457
 4650.00      -1.0482853073095
 4700.00      -1.0593277893938
 4750.00      -1.0703905576175
 4800.00      -1.0814732105241
 4850.00      -1.0925756426950
 4900.00      -1.1036976961437
 4950.00      -1.1148384211301
 5000.00      -1.1259996001521
# V=  60.5108202020202
    0.00      -0.1952874935396
   50.00      -0.1965169392687
  100.00      -0.1996993310165
  150.00      -0.2038557521612
  200.00      -0.2086525610148
  250.00      -0.2139275453946
  300.00      -0.2195847357739
  350.00      -0.2255588387428
  400.00      -0.2318054739189
  450.00      -0.2382875125302
  500.00      -0.2449827584212
  550.00      -0.2518673905483
  600.00      -0.2589262503565
  650.00      -0.2661425514385
  700.00      -0.2735051422829
  750.00      -0.2810046921840
  800.00      -0.2886298671578
  850.00      -0.2963722936523
  900.00      -0.3042285059600
  950.00      -0.3121900971671
 1000.00      -0.3202520759052
 1050.00      -0.3284086026997
 1100.00      -0.3366555967819
 1150.00      -0.3449888494067
 1200.00      -0.3534051356908
 1250.00      -0.3619004422816
 1300.00      -0.3704724245439
 1350.00      -0.3791168442805
 1400.00      -0.3878313374613
 1450.00      -0.3966138096851
 1500.00      -0.4054620408133
 1550.00      -0.4143773154200
 1600.00      -0.4233447838436
 1650.00      -0.4323776231481
 1700.00      -0.4414671127197
 1750.00      -0.4506124770270
 1800.00      -0.4598122316575
 1850.00      -0.4690647589358
 1900.00      -0.4783691340657
 1950.00      -0.4877228625992
 2000.00      -0.4971259713016
 2050.00      -0.5065763629881
 2100.00      -0.5160733265332
 2150.00      -0.5256152693835
 2200.00      -0.5352011686218
 2250.00      -0.5448302398204
 2300.00      -0.5545084898597
 2350.00      -0.5642211339350
 2400.00      -0.5739747126428
 2450.00      -0.5837675821760
 2500.00      -0.5935995441631
 2550.00      -0.6034692690559
 2600.00      -0.6133761823848
 2650.00      -0.6233196643810
 2700.00      -0.6332920658826
 2750.00      -0.6433065347157
 2800.00      -0.6533542404918
 2850.00      -0.6634369320555
 2900.00      -0.6735529871129
 2950.00      -0.6837025986876
 3000.00      -0.6938834040382
 3050.00      -0.7040968279045
 3100.00      -0.7143407036729
 3150.00      -0.7246153589172
 3200.00      -0.7349199330687
 3250.00      -0.7452541864558
 3300.00      -0.7556179355033
 3350.00      -0.7660150950704
 3400.00      -0.7764312653381
 3450.00      -0.7868820447525
 3500.00      -0.7973585607475
 3550.00      -0.8078617019858
 3600.00      -0.8183869572700
 3650.00      -0.8289440058610
 3700.00      -0.8395254122970
 3750.00      -0.8501349571389
 3800.00      -0.8607668190464
 3850.00      -0.8714275692527
 3900.00      -0.8821100983170
 3950.00      -0.8928179742778
 4000.00      -0.9035499274432
 4050.00      -0.9143057841207
 4100.00      -0.9250847960473
 4150.00      -0.9358942544646
 4200.00      -0.9467109856059
 4250.00      -0.9575583642060
 4300.00      -0.9684293492224
 4350.00      -0.9793213484383
 4400.00      -0.9902351810065
 4450.00      -1.0011715843528
 4500.00      -1.0121274953046
 4550.00      -1.0231054642873
 4600.00      -1.0341042941623
 4650.00      -1.0451239664585
 4700.00      -1.0561641102876
 4750.00      -1.0672242447122
 4800.00      -1.0783045196007
 4850.00      -1.0894045744369
 4900.00      -1.1005242503338
 4950.00      -1.1116626656983
 5000.00      -1.1228214834247
# V=  60.4324303030303
    0.00      -0.1923290757034
   50.00      -0.1935570992459
  100.00      -0.1967371871333
  150.00      -0.2008912971339
  200.00      -0.2056857801334
  250.00      -0.2109584192633
  300.00      -0.2166133385425
  350.00      -0.2225850884950
  400.00      -0.2288292733587
  450.00      -0.2353090586993
  500.00      -0.2420020126846
  550.00      -0.2488842538749
  600.00      -0.2559407857551
  650.00      -0.2631547562127
  700.00      -0.2705150140170
  750.00      -0.2780121930433
  800.00      -0.2856350484916
  850.00      -0.2933749849253
  900.00      -0.3012289345691
  950.00      -0.3091880898345
 1000.00      -0.3172477259209
 1050.00      -0.3254018952988
 1100.00      -0.3336465350415
 1150.00      -0.3419774436607
 1200.00      -0.3503915040361
 1250.00      -0.3588843513976
 1300.00      -0.3674538328804
 1350.00      -0.3760958774607
 1400.00      -0.3848080302984
 1450.00      -0.3935883421809
 1500.00      -0.4024340036999
 1550.00      -0.4113472250279
 1600.00      -0.4203126147142
 1650.00      -0.4293429933029
 1700.00      -0.4384301470556
 1750.00      -0.4475731764630
 1800.00      -0.4567705937494
 1850.00      -0.4660207826103
 1900.00      -0.4753227000399
 1950.00      -0.4846740991491
 2000.00      -0.4940747221466
 2050.00      -0.5035229028097
 2100.00      -0.5130173779533
 2150.00      -0.5225571208536
 2200.00      -0.5321406716999
 2250.00      -0.5417673994042
 2300.00      -0.5514429751335
 2350.00      -0.5611533507743
 2400.00      -0.5709045527967
 2450.00      -0.5806950462150
 2500.00      -0.5905246285714
 2550.00      -0.6003920894605
 2600.00      -0.6102966250017
 2650.00      -0.6202377261821
 2700.00      -0.6302079382645
 2750.00      -0.6402200351808
 2800.00      -0.6502658338070
 2850.00      -0.6603461905195
 2900.00      -0.6704599077564
 2950.00      -0.6806070941275
 3000.00      -0.6907855688616
 3050.00      -0.7009967291280
 3100.00      -0.7112380469031
 3150.00      -0.7215103415282
 3200.00      -0.7318123913063
 3250.00      -0.7421444863784
 3300.00      -0.7525058733795
 3350.00      -0.7629007364566
 3400.00      -0.7733147340408
 3450.00      -0.7837630433255
 3500.00      -0.7942372552503
 3550.00      -0.8047381140271
 3600.00      -0.8152615617989
 3650.00      -0.8258164520851
 3700.00      -0.8363954982230
 3750.00      -0.8470027572764
 3800.00      -0.8576321685954
 3850.00      -0.8682905610487
 3900.00      -0.8789705729607
 3950.00      -0.8896761087110
 4000.00      -0.9004057225784
 4050.00      -0.9111592264929
 4100.00      -0.9219357122156
 4150.00      -0.9327428824634
 4200.00      -0.9435577915449
 4250.00      -0.9544028441334
 4300.00      -0.9652714721690
 4350.00      -0.9761611602083
 4400.00      -0.9870726802865
 4450.00      -0.9980067317043
 4500.00      -1.0089600568128
 4550.00      -1.0199356736965
 4600.00      -1.0309321498195
 4650.00      -1.0419496247788
 4700.00      -1.0529874333520
 4750.00      -1.0640449497989
 4800.00      -1.0751228513848
 4850.00      -1.0862205335696
 4900.00      -1.0973378366115
 4950.00      -1.1084739439830
 5000.00      -1.1196304045081
# V=  60.3540404040404
    0.00      -0.1893573264791
   50.00      -0.1905839320365
  100.00      -0.1937617217661
  150.00      -0.1979135240544
  200.00      -0.2027056845914
  250.00      -0.2079759824992
  300.00      -0.2136286313609
  350.00      -0.2195980324569
  400.00      -0.2258397756286
  450.00      -0.2323173068467
  500.00      -0.2390079701919
  550.00      -0.2458878259893
  600.00      -0.2529420329202
  650.00      -0.2601536756238
  700.00      -0.2675116033654
  750.00      -0.2750064164539
  800.00      -0.2826269547519
  850.00      -0.2903644108581
  900.00      -0.2982160977275
  950.00      -0.3061728247145
 1000.00      -0.3142301216687
 1050.00      -0.3223819377193
 1100.00      -0.3306242270582
 1150.00      -0.3389527951098
 1200.00      -0.3473646277758
 1250.00      -0.3558550245971
 1300.00      -0.3644220160007
 1350.00      -0.3730616903191
 1400.00      -0.3817715060668
 1450.00      -0.3905496527628
 1500.00      -0.3993927583401
 1550.00      -0.4083039175402
 1600.00      -0.4172672188760
 1650.00      -0.4262951456244
 1700.00      -0.4353799666000
 1750.00      -0.4445206641094
 1800.00      -0.4537157471790
 1850.00      -0.4629636007955
 1900.00      -0.4722630691759
 1950.00      -0.4816121415927
 2000.00      -0.4910102888019
 2050.00      -0.5004562559260
 2100.00      -0.5099482527042
 2150.00      -0.5194857926272
 2200.00      -0.5290669986976
 2250.00      -0.5386913863010
 2300.00      -0.5483643074503
 2350.00      -0.5580724146672
 2400.00      -0.5678212450031
 2450.00      -0.5776093672134
 2500.00      -0.5874365750687
 2550.00      -0.5973017718306
 2600.00      -0.6072039345642
 2650.00      -0.6171426600529
 2700.00      -0.6271106778163
 2750.00      -0.6371204075299
 2800.00      -0.6471642825253
 2850.00      -0.6572423073837
 2900.00      -0.6673536899264
 2950.00      -0.6774984583230
 3000.00      -0.6876746051992
 3050.00      -0.6978835018066
 3100.00      -0.7081222746304
 3150.00      -0.7183922128270
 3200.00      -0.7286917497351
 3250.00      -0.7390216815303
 3300.00      -0.7493807107380
 3350.00      -0.7597732795473
 3400.00      -0.7701850992388
 3450.00      -0.7806309478930
 3500.00      -0.7911028574165
 3550.00      -0.8016014343292
 3600.00      -0.8121230528975
 3650.00      -0.8226757800463
 3700.00      -0.8332524697987
 3750.00      -0.8438574441234
 3800.00      -0.8544844127096
 3850.00      -0.8651404518699
 3900.00      -0.8758179576825
 3950.00      -0.8865211565122
 4000.00      -0.8972484343307
 4050.00      -0.9079995893748
 4100.00      -0.9187735605177
 4150.00      -0.9295784449475
 4200.00      -0.9403915103223
 4250.00      -0.9512342394563
 4300.00      -0.9621005147126
 4350.00      -0.9729878935031
 4400.00      -0.9838971030845
 4450.00      -0.9948288065205
 4500.00      -1.0057795598804
 4550.00      -1.0167528284449
 4600.00      -1.0277469546655
 4650.00      -1.0387622291574
 4700.00      -1.0497977055340
 4750.00      -1.0608526197215
 4800.00      -1.0719281527584
 4850.00      -1.0830234670135
 4900.00      -1.0941384019354
 4950.00      -1.1052722030196
 5000.00      -1.1164263104837
# V=  60.2756505050505
    0.00      -0.1863721868267
   50.00      -0.1875973786396
  100.00      -0.1907728759433
  150.00      -0.1949223740078
  200.00      -0.1997122155304
  250.00      -0.2049801762914
  300.00      -0.2106305555098
  350.00      -0.2165976119549
  400.00      -0.2228369220422
  450.00      -0.2293121983971
  500.00      -0.2360005724514
  550.00      -0.2428780484272
  600.00      -0.2499299334484
  650.00      -0.2571392513312
  700.00      -0.2644948520483
  750.00      -0.2719873041716
  800.00      -0.2796055277632
  850.00      -0.2873405132472
  900.00      -0.2951899373333
  950.00      -0.3031442437049
 1000.00      -0.3111992051005
 1050.00      -0.3193486719592
 1100.00      -0.3275886148787
 1150.00      -0.3359148458557
 1200.00      -0.3443244491354
 1250.00      -0.3528124040918
 1300.00      -0.3613769160762
 1350.00      -0.3700142250628
 1400.00      -0.3787217070313
 1450.00      -0.3874976838593
 1500.00      -0.3963382470832
 1550.00      -0.4052473355233
 1600.00      -0.4142085391208
 1650.00      -0.4232340228881
 1700.00      -0.4323165141889
 1750.00      -0.4414548828627
 1800.00      -0.4506476349020
 1850.00      -0.4598931565054
 1900.00      -0.4691901844745
 1950.00      -0.4785369329951
 2000.00      -0.4879326143028
 2050.00      -0.4973763655057
 2100.00      -0.5068658939229
 2150.00      -0.5164012279817
 2200.00      -0.5259800929446
 2250.00      -0.5356021438965
 2300.00      -0.5452724300388
 2350.00      -0.5549782689426
 2400.00      -0.5647247326255
 2450.00      -0.5745104885707
 2500.00      -0.5843353270873
 2550.00      -0.5941982597007
 2600.00      -0.6040980546416
 2650.00      -0.6140344095958
 2700.00      -0.6240002283035
 2750.00      -0.6340075955667
 2800.00      -0.6440495307663
 2850.00      -0.6541252268286
 2900.00      -0.6642342778627
 2950.00      -0.6743766355197
 3000.00      -0.6845504573604
 3050.00      -0.6947570903507
 3100.00      -0.7049933311947
 3150.00      -0.7152609171990
 3200.00      -0.7255579526901
 3250.00      -0.7358857164117
 3300.00      -0.7462423921234
 3350.00      -0.7566326689589
 3400.00      -0.7670423057163
 3450.00      -0.7774857032151
 3500.00      -0.7879553120847
 3550.00      -0.7984516078233
 3600.00      -0.8089713758801
 3650.00      -0.8195219352218
 3700.00      -0.8300962725505
 3750.00      -0.8406989632926
 3800.00      -0.8513234969991
 3850.00      -0.8619771873685
 3900.00      -0.8726521980899
 3950.00      -0.8833530633463
 4000.00      -0.8940780084227
 4050.00      -0.9048268185383
 4100.00      -0.9155982866738
 4150.00      -0.9264008877080
 4200.00      -0.9372120881108
 4250.00      -0.9480524964141
 4300.00      -0.9589164231381
 4350.00      -0.9698014946826
 4400.00      -0.9807083958344
 4450.00      -0.9916377552840
 4500.00      -1.0025859509059
 4550.00      -1.0135568749818
 4600.00      -1.0245486551995
 4650.00      -1.0355617262350
 4700.00      -1.0465948735343
 4750.00      -1.0576472010757
 4800.00      -1.0687203703555
 4850.00      -1.0798133214410
 4900.00      -1.0909258930163
 4950.00      -1.1020573895969
 5000.00      -1.1132091481866
# V=  60.1972606060606
    0.00      -0.1833735974012
   50.00      -0.1845973797491
  100.00      -0.1877705903884
  150.00      -0.1919177877746
  200.00      -0.1967053137878
  250.00      -0.2019709415255
  300.00      -0.2076190519676
  350.00      -0.2135837680137
  400.00      -0.2198206536106
  450.00      -0.2262936744742
  500.00      -0.2329797606712
  550.00      -0.2398548624239
  600.00      -0.2469044286371
  650.00      -0.2541114246950
  700.00      -0.2614647014878
  750.00      -0.2689547976540
  800.00      -0.2765707090530
  850.00      -0.2843032335910
  900.00      -0.2921503949881
  950.00      -0.3001022884060
 1000.00      -0.3081549178714
 1050.00      -0.3163020397206
 1100.00      -0.3245396402536
 1150.00      -0.3328635377046
 1200.00      -0.3412709100467
 1250.00      -0.3497564317988
 1300.00      -0.3583184749830
 1350.00      -0.3669534236043
 1400.00      -0.3756585751621
 1450.00      -0.3844323776067
 1500.00      -0.3932704119847
 1550.00      -0.4021774212531
