# T (K)      B_S (GPa)
# P = 0.000000 (GPa)
    1.0     180.8408874116483
  100.0     180.6510924668101
  200.0     179.7946264601028
  300.0     178.7273883760239
  400.0     177.4740835745792
  500.0     176.1834777920511
  600.0     174.8388949821723
  700.0     173.4771639289692
  800.0     172.0993104085075
  900.0     170.7142031060614
 1000.0     169.3244376928544
 1100.0     167.9329169331168
 1200.0     166.5412862984831
 1300.0     165.1509367437914
 1400.0     163.7627757522523
 1500.0     162.3777049353850
 1600.0     160.9962416021641
 1700.0     159.6191283757119
 1800.0     158.2465019684544
 1900.0     156.8792584807896
 2000.0     155.5172420990837
 2100.0     154.1613765024349
 2200.0     152.8114283196795
 2300.0     151.4681746293465
 2400.0     150.1319243861650
 2500.0     148.8025415118780
 2600.0     147.4808654995289
 2700.0     146.1670770408068
 2800.0     144.8615748324417
 2900.0     143.5641528407255
 3000.0     142.2763529922026
 3100.0     140.9971207115998
 3200.0     139.7281313693163
 3300.0     138.4687411670887
 3400.0     137.2199656756736
 3500.0     135.9825568252017
 3600.0     134.7561836406869
 3700.0     133.5414562808859
 3800.0     132.3398062723411
 3900.0     131.1502711893050
 4000.0     129.9751975290459
 4100.0     128.8137805678338
 4200.0     127.6665790558295
 4300.0     126.5365265250766
 4400.0     125.4206592052065
 4500.0     124.3232878178906
 4600.0     123.2428872834070
 4700.0     122.1804065268608
 4800.0     121.1368597694501
 4900.0     120.1064020879066
 5000.0     119.0925743604457
 5100.0     118.0800848121792
 5200.0     117.1048283193215
 5300.0     116.0996378070935
 5400.0     115.1328803261455
 5500.0     114.1160209818706
 5600.0     113.1736292556964
 5700.0     112.1705781008124
 5800.0     111.1938372240894
 5900.0     110.1450716980958
 6000.0     109.1013971076978
# P = 1.000000 (GPa)
    1.0     184.7806660718784
  100.0     184.5849372390648
  200.0     183.7205472121797
  300.0     182.6430999550706
  400.0     181.3827754654389
  500.0     180.0843846146293
  600.0     178.7322870729158
  700.0     177.3626968971133
  800.0     175.9768466391438
  900.0     174.5835339275642
 1000.0     173.1853863309149
 1100.0     171.7852970868488
 1200.0     170.3849188655417
 1300.0     168.9856322534759
 1400.0     167.5883451370718
 1500.0     166.1939455905529
 1600.0     164.8029372026438
 1700.0     163.4160566389567
 1800.0     162.0334173480527
 1900.0     160.6559086849767
 2000.0     159.2833553243908
 2100.0     157.9166582918564
 2200.0     156.5555931196435
 2300.0     155.2008673797350
 2400.0     153.8528392732539
 2500.0     152.5113043398503
 2600.0     151.1770782914072
 2700.0     149.8503453489105
 2800.0     148.5314591027996
 2900.0     147.2202026037060
 3000.0     145.9180746601452
 3100.0     144.6240279567410
 3200.0     143.3396572173314
 3300.0     142.0643290824312
 3400.0     140.7990088150392
 3500.0     139.5443714042179
 3600.0     138.3001227962761
 3700.0     137.0668109812252
 3800.0     135.8457778571132
 3900.0     134.6360591520146
 4000.0     133.4399013525815
 4100.0     132.2564912608270
 4200.0     131.0863375381626
 4300.0     129.9321822679135
 4400.0     128.7912299898144
 4500.0     127.6674664702549
 4600.0     126.5593839966513
 4700.0     125.4685123139212
 4800.0     124.3978133684932
 4900.0     123.3432430753103
 5000.0     122.3087953315657
 5100.0     121.2826695579250
 5200.0     120.2924553126527
 5300.0     119.2821598510649
 5400.0     118.3171410295124
 5500.0     117.3173772593485
 5600.0     116.3706543614895
 5700.0     115.3916664020493
 5800.0     114.4335442558597
 5900.0     113.4317858054568
 6000.0     112.4417041104727
# P = 2.000000 (GPa)
    1.0     188.7204522113178
  100.0     188.5189153744811
  200.0     187.6468725087520
  300.0     186.5594439115564
  400.0     185.2922031937025
  500.0     183.9861690707083
  600.0     182.6267090404573
  700.0     181.2494360581218
  800.0     179.8557707904704
  900.0     178.4544527875715
 1000.0     177.0481393307157
 1100.0     175.6397159178156
 1200.0     174.2308417359584
 1300.0     172.8228885763270
 1400.0     171.4167595981144
 1500.0     170.0133178955608
 1600.0     168.6130866218726
 1700.0     167.2167527761528
 1800.0     165.8244607893159
 1900.0     164.4370394881612
 2000.0     163.0543428829054
 2100.0     161.6772289334660
 2200.0     160.3054739223565
 2300.0     158.9397631541119
 2400.0     157.5803882706245
 2500.0     156.2272351956566
 2600.0     154.8809887110255
 2700.0     153.5418818792196
 2800.0     152.2102173186989
 2900.0     150.8857741913531
 3000.0     149.5699792620452
 3100.0     148.2618487963024
 3200.0     146.9628349392271
 3300.0     145.6723746025250
 3400.0     144.3913716337608
 3500.0     143.1204316264690
 3600.0     141.8592670172764
 3700.0     140.6083762881479
 3800.0     139.3690522783130
 3900.0     138.1403196099001
 4000.0     136.9243223747459
 4100.0     135.7202309601446
 4200.0     134.5285508594392
 4300.0     133.3518256945541
 4400.0     132.1873891554691
 4500.0     131.0389965545752
 4600.0     129.9051549015809
 4700.0     128.7872959008778
 4800.0     127.6881682153205
 4900.0     126.6041676295264
 5000.0     125.5408391571171
 5100.0     124.4900782404809
 5200.0     123.4766908355287
 5300.0     122.4503891887590
 5400.0     121.4735656769544
 5500.0     120.4740593987902
 5600.0     119.5178430496864
 5700.0     118.5482495974593
 5800.0     117.5986553412266
 5900.0     116.6260720182160
 6000.0     115.6727500879330
# P = 3.000000 (GPa)
    1.0     192.6602369502638
  100.0     192.4530352362573
  200.0     191.5735689917297
  300.0     190.4763933582223
  400.0     189.2023389970864
  500.0     187.8887965364365
  600.0     186.5221129829417
  700.0     185.1373239342958
  800.0     183.7360176044465
  900.0     182.3268943429196
 1000.0     180.9126200057553
 1100.0     179.4960922242096
 1200.0     178.0789586755883
 1300.0     176.6625845219200
 1400.0     175.2478737508971
 1500.0     173.8356847137902
 1600.0     172.4265127851630
 1700.0     171.0210481620669
 1800.0     169.6194266675701
 1900.0     168.2224471744406
 2000.0     166.8299740325788
 2100.0     165.4428147432667
 2200.0     164.0607730260805
 2300.0     162.6844841738602
 2400.0     161.3142633033353
 2500.0     159.9499233500684
 2600.0     158.5922022563632
 2700.0     157.2412293523464
 2800.0     155.8973364002125
 2900.0     154.5603324205114
 3000.0     153.2314888462550
 3100.0     151.9099133958521
 3200.0     150.5970076871752
 3300.0     149.2921498625795
 3400.0     147.9962188366948
 3500.0     146.7098239596944
 3600.0     145.4326349207048
 3700.0     144.1651042218935
 3800.0     142.9084843642849
 3900.0     141.6617986123880
 4000.0     140.4270914078612
 4100.0     139.2035431785985
 4200.0     137.9916238146280
 4300.0     136.7936918127755
 4400.0     135.6072396158900
 4500.0     134.4357956594900
 4600.0     133.2778830029480
 4700.0     132.1348375432621
 4800.0     131.0092599275219
 4900.0     129.8976469758699
 5000.0     128.8052705305194
 5100.0     127.7243652981202
 5200.0     126.6800110911967
 5300.0     125.6273119896817
 5400.0     124.6266664041359
 5500.0     123.6122807374985
 5600.0     122.6389972268384
 5700.0     121.6643757417895
 5800.0     120.7117563304173
 5900.0     119.7508363581652
 6000.0     118.8167423120191
# P = 4.000000 (GPa)
    1.0     196.6000293594852
  100.0     196.3872814867832
  200.0     195.5006344302728
  300.0     194.3939397532397
  400.0     193.1131585897481
  500.0     191.7922407697021
  600.0     190.4184599987290
  700.0     189.0263045456940
  800.0     187.6175384027441
  900.0     186.2007868320930
 1000.0     184.7787581431775
 1100.0     183.3543315013777
 1200.0     181.9291640154281
 1300.0     180.5046074806400
 1400.0     179.0815769934640
 1500.0     177.6608944015229
 1600.0     176.2430720485154
 1700.0     174.8287716231934
 1800.0     173.4181327805355
 1900.0     172.0119256494158
 2000.0     170.6100118618073
 2100.0     169.2131821535126
 2200.0     167.8212457837998
 2300.0     166.4347937319255
 2400.0     165.0541209133307
 2500.0     163.6790781581222
 2600.0     162.3103100083960
 2700.0     160.9479909185073
 2800.0     159.5924181768579
 2900.0     158.2433376901916
 3000.0     156.9020671506162
 3100.0     155.5676756672924
 3200.0     154.2414771722403
 3300.0     152.9229642097813
 3400.0     151.6128435110292
 3500.0     150.3117327602154
 3600.0     149.0193509066884
 3700.0     147.7360679047225
 3800.0     146.4630528545416
 3900.0     145.1993909229422
 4000.0     143.9470120353657
 4100.0     142.7051143741865
 4200.0     141.4741132843392
 4300.0     140.2562507374745
 4400.0     139.0491132418439
 4500.0     137.8560187016438
 4600.0     136.6755526785090
 4700.0     135.5089517566728
 4800.0     134.3586677054514
 4900.0     133.2213223409334
 5000.0     132.1019026094611
 5100.0     130.9929690109577
 5200.0     129.9182435264622
 5300.0     128.8351859362020
 5400.0     127.8018987543439
 5500.0     126.7595842893053
 5600.0     125.7600843215189
 5700.0     124.7667761277908
 5800.0     123.7989787489390
 5900.0     122.8331050644797
 6000.0     121.9009190147964
# P = 5.000000 (GPa)
    1.0     200.5398322296806
  100.0     200.3216623352025
  200.0     199.4280765769241
  300.0     198.3120664230337
  400.0     197.0246456590555
  500.0     195.6964675337555
  600.0     194.3157243376612
  700.0     192.9163505775554
  800.0     191.5002833441832
  900.0     190.0760772526854
 1000.0     188.6464853095761
 1100.0     187.2143604014388
 1200.0     185.7813707318590
 1300.0     184.3488696426839
 1400.0     182.9177491175262
 1500.0     181.4888373777227
 1600.0     180.0626233375564
 1700.0     178.6397752382764
 1800.0     177.2204136948872
 1900.0     175.8052862798250
 2000.0     174.3942696434460
 2100.0     172.9881141651999
 2200.0     171.5866287693055
 2300.0     170.1903874116714
 2400.0     168.7996663838502
 2500.0     167.4143317461113
 2600.0     166.0349836369081
 2700.0     164.6617779879314
 2800.0     163.2949870700662
 2900.0     161.9344111135467
 3000.0     160.5812214636478
 3100.0     159.2345921333236
 3200.0     157.8957479139554
 3300.0     156.5641387152685
 3400.0     155.2405380682422
 3500.0     153.9254498605104
 3600.0     152.6185982702277
 3700.0     151.3203644906451
 3800.0     150.0318460043988
 3900.0     148.7520945618500
 4000.0     147.4829875831118
 4100.0     146.2237528633460
 4200.0     144.9747531340799
 4300.0     143.7380803356301
 4400.0     142.5114759635593
 4500.0     141.2980450170532
 4600.0     140.0964010005464
 4700.0     138.9077119355975
 4800.0     137.7342902775756
 4900.0     136.5728868536615
 5000.0     135.4282342578673
 5100.0     134.2931672227892
 5200.0     133.1901968686990
 5300.0     132.0790256115655
 5400.0     131.0144787529729
 5500.0     129.9409752068690
 5600.0     128.9078859376286
 5700.0     127.8836435044025
 5800.0     126.8885855206326
 5900.0     125.9025341362521
 6000.0     124.9559374151105
# P = 6.000000 (GPa)
    1.0     204.4796336058373
  100.0     204.2561749754325
  200.0     203.3558743535964
  300.0     202.2307612626668
  400.0     200.9367944087913
  500.0     199.6014782391207
  600.0     198.2138805893825
  700.0     196.8074279971006
  800.0     195.3842038371696
  900.0     193.9527115450931
 1000.0     192.5157250257974
 1100.0     191.0760986935177
 1200.0     189.6355021003364
 1300.0     188.1952661523043
 1400.0     186.7562826791612
 1500.0     185.3193806357669
 1600.0     183.8850366645706
 1700.0     182.4538990684241
 1800.0     181.0260938035619
 1900.0     179.6023437143513
 2000.0     178.1825384153673
 2100.0     176.7673782217190
 2200.0     175.3566964348063
 2300.0     173.9510255869203
 2400.0     172.5506485165396
 2500.0     171.1554148962026
 2600.0     169.7658901916877
 2700.0     168.3822295922919
 2800.0     167.0047088420575
 2900.0     165.6330781284359
 3000.0     164.2685124466526
 3100.0     162.9101633887259
 3200.0     161.5592281656593
 3300.0     160.2151795265621
 3400.0     158.8786885962467
 3500.0     157.5502998452804
 3600.0     156.2297055927455
 3700.0     154.9172260357875
 3800.0     153.6139699187257
 3900.0     152.3189749062954
 4000.0     151.0340261064813
 4100.0     149.7583735808633
 4200.0     148.4923704523582
 4300.0     147.2379492130567
 4400.0     145.9929734610404
 4500.0     144.7603708004430
 4600.0     143.5388215293304
 4700.0     142.3293901305672
 4800.0     141.1342542809346
 4900.0     139.9502993202019
 5000.0     138.7820511637239
 5100.0     137.6225768596545
 5200.0     136.4932712377911
 5300.0     135.3559034512157
 5400.0     134.2622941817111
 5500.0     133.1598996202989
 5600.0     132.0952684219581
 5700.0     131.0385599671863
 5800.0     130.0090575650954
 5900.0     128.9902968131381
 6000.0     128.0138849219261
# P = 7.000000 (GPa)
    1.0     208.4194364402092
  100.0     208.1908157665611
  200.0     207.2840228687644
  300.0     206.1500156524765
  400.0     204.8495756178891
  500.0     203.5072261238339
  600.0     202.1129015218680
  700.0     200.6994962903011
  800.0     199.2692684248473
  900.0     197.8306504367783
 1000.0     196.3864494861443
 1100.0     194.9395030615442
 1200.0     193.4914731507694
 1300.0     192.0437109015658
 1400.0     190.5970873800322
 1500.0     189.1524222816727
 1600.0     187.7101833628153
 1700.0     186.2710158277259
 1800.0     184.8350444714074
 1900.0     183.4029513735516
 2000.0     181.9746425301092
 2100.0     180.5507871315853
 2200.0     179.1312333175939
 2300.0     177.7164783763083
 2400.0     176.3067935912437
 2500.0     174.9020383430826
 2600.0     173.5027352632530
 2700.0     172.1090452920770
 2800.0     170.7212078578809
 2900.0     169.3390083131959
 3000.0     167.9635182641034
 3100.0     166.5939752015722
 3200.0     165.2314711824192
 3300.0     163.8755063530263
 3400.0     162.5267457631864
 3500.0     161.1856490543735
 3600.0     159.8519553882700
 3700.0     158.5259698681907
 3800.0     157.2086823297241
 3900.0     155.8992158271571
 4000.0     154.5992429177224
 4100.0     153.3080231486036
 4200.0     152.0259111598000
 4300.0     150.7547184697430
 4400.0     149.4923734107466
 4500.0     148.2417050828809
 4600.0     147.0013846467870
 4700.0     145.7724222990721
 4800.0     144.5568917547783
 4900.0     143.3517738289806
 5000.0     142.1613805730865
 5100.0     140.9790597680291
 5200.0     139.8251313900716
 5300.0     138.6632903227806
 5400.0     137.5426161767344
 5500.0     136.4133308458134
 5600.0     135.3193995413153
 5700.0     134.2326080728730
 5800.0     133.1711451718401
 5900.0     132.1192322939692
 6000.0     131.1072155323404
# P = 8.000000 (GPa)
    1.0     212.3592494228307
  100.0     212.1255872573865
  200.0     211.2125213982780
  300.0     210.0698163997343
  400.0     208.7629889483367
  500.0     207.4137072987733
  600.0     206.0127582579543
  700.0     204.5925406597342
  800.0     203.1554429975177
  900.0     201.7098518352700
 1000.0     200.2585916510558
 1100.0     198.8044984163931
 1200.0     197.3492299563650
 1300.0     195.8941368932333
 1400.0     194.4400677149243
 1500.0     192.9878591924015
 1600.0     191.5379668771920
 1700.0     190.0910045926038
 1800.0     188.6471136007964
 1900.0     187.2069399701087
 2000.0     185.7704121750583
 2100.0     184.3381492150969
 2200.0     182.9100382319677
 2300.0     181.4865162693542
 2400.0     180.0678674815774
 2500.0     178.6539391206871
 2600.0     177.2452285903390
 2700.0     175.8418915323949
 2800.0     174.4441658234329
 2900.0     173.0518033128434
 3000.0     171.6658579004360
 3100.0     170.2855859789725
 3200.0     168.9120115839898
 3300.0     167.5446863634295
 3400.0     166.1841798069057
 3500.0     164.8309710407147
 3600.0     163.4847926653327
 3700.0     162.1458976197011
 3800.0     160.8152888088210
 3900.0     159.4920356467159
 4000.0     158.1777933801629
 4100.0     156.8718256100472
 4200.0     155.5744289141721
 4300.0     154.2873585559861
 4400.0     153.0086232517542
 4500.0     151.7408449368071
 4600.0     150.4828066621707
 4700.0     149.2354278320439
 4800.0     148.0006915367525
 4900.0     146.7756540928111
 5000.0     145.5644799057073
 5100.0     144.3607072470890
 5200.0     143.1837223079740
 5300.0     141.9989827266400
 5400.0     140.8530042489572
 5500.0     139.6986557940721
 5600.0     138.5774036905292
 5700.0     137.4626363580927
 5800.0     136.3715162898973
 5900.0     135.2888333070412
 6000.0     134.2442177649910
# P = 9.000000 (GPa)
    1.0     216.2990592491946
  100.0     216.0604845187524
  200.0     215.1413661918174
  300.0     213.9901477429696
  400.0     212.6770193284414
  500.0     211.3209104340161
  600.0     209.9134392119414
  700.0     208.4865230475574
  800.0     207.0426915115314
  900.0     205.5902687063464
 1000.0     204.1321063337793
 1100.0     202.6710377711115
 1200.0     201.2087059294777
 1300.0     199.7464587062238
 1400.0     198.2851633678231
 1500.0     196.8256116080588
 1600.0     195.3682752199314
 1700.0     193.9137461390360
 1800.0     192.4621726330331
 1900.0     191.0141822138094
 2000.0     189.5696919191155
 2100.0     188.1293227584407
 2200.0     186.6929215607404
 2300.0     185.2609503953648
 2400.0     183.8336485480965
 2500.0     182.4108887229866
 2600.0     180.9931298534610
 2700.0     179.5805298155120
 2800.0     178.1732700306977
 2900.0     176.7711678118561
 3000.0     175.3751845449577
 3100.0     173.9846207909318
 3200.0     172.6004658498153
 3300.0     171.2222325114600
 3400.0     169.8505078973196
 3500.0     168.4857279278004
 3600.0     167.1276272139181
 3700.0     165.7764399259248
 3800.0     164.4331216815947
 3900.0     163.0967778278250
 4000.0     161.7689495416197
 4100.0     160.4489566043789
 4200.0     159.1370776987908
 4300.0     157.8349041035287
 4400.0     156.5406372203799
 4500.0     155.2567112303304
 4600.0     153.9819001363043
 4700.0     152.7171477588051
 4800.0     151.4642939791075
 4900.0     150.2205071910076
 5000.0     148.9897473660267
 5100.0     147.7658272265729
 5200.0     146.5671938449987
 5300.0     145.3609917148533
 5400.0     144.1913327094216
 5500.0     143.0135137795268
 5600.0     141.8667913437970
 5700.0     140.7259293644217
 5800.0     139.6071875271979
 5900.0     138.4959172300124
 6000.0     137.4210374482954
# P = 10.000000 (GPa)
    1.0     220.2388738486983
  100.0     219.9955058342473
  200.0     219.0705412025867
  300.0     217.9110030675495
  400.0     216.5916400465636
  500.0     215.2288010713218
  600.0     213.8149178923154
  700.0     212.3814188922579
  800.0     210.9309849286195
  900.0     209.4718727477678
 1000.0     208.0069583223727
 1100.0     206.5390666946587
 1200.0     205.0698381123686
 1300.0     203.6006251532313
 1400.0     202.1322822392089
 1500.0     200.6655835292551
 1600.0     199.2010110551730
 1700.0     197.7391411980348
 1800.0     196.2801165176411
 1900.0     194.8245436942095
 2000.0     193.3723400013643
 2100.0     191.9241179407804
 2200.0     190.4797115857563
 2300.0     189.0395821373190
 2400.0     187.6039283539760
 2500.0     186.1726592701521
 2600.0     184.7461794907666
 2700.0     183.3246405757985
 2800.0     181.9082435912728
 2900.0     180.4967761668820
 3000.0     179.0911669048530
 3100.0     177.6907449029323
 3200.0     176.2964120078031
 3300.0     174.9077629324087
 3400.0     173.5253025454150
 3500.0     172.1494497028501
 3600.0     170.7799646700595
 3700.0     169.4170493824993
 3800.0     168.0616225081288
 3900.0     166.7127655462995
 4000.0     165.3720334848803
 4100.0     164.0386959459381
 4200.0     162.7130312151061
 4300.0     161.3965884463743
 4400.0     160.0875470084449
 4500.0     158.7883069391669
 4600.0     157.4976636292794
 4700.0     156.2164335854857
