# T (K)      B_T_P (GPa)
# P = 0.000000 (GPa)
    1.0     180.8399485484271
  100.0     180.5784928214921
  200.0     179.4628418493951
  300.0     177.8716112767734
  400.0     176.1036496864408
  500.0     174.2668429333161
  600.0     172.3980510385715
  700.0     170.5118080611790
  800.0     168.6147296643431
  900.0     166.7101847371067
 1000.0     164.8000605276832
 1100.0     162.8854779242326
 1200.0     160.9671276739416
 1300.0     159.0454612932750
 1400.0     157.1207832747394
 1500.0     155.1932853554286
 1600.0     153.2631090009665
 1700.0     151.3303297401260
 1800.0     149.3950277979278
 1900.0     147.4572116999891
 2000.0     145.5169150045982
 2100.0     143.5741272984234
 2200.0     141.6288537841656
 2300.0     139.6810801141698
 2400.0     137.7307689118677
 2500.0     135.7779276338256
 2600.0     133.8225144788565
 2700.0     131.8644937566484
 2800.0     129.9038339585845
 2900.0     127.9405211099781
 3000.0     125.9744869399230
 3100.0     124.0057276714578
 3200.0     122.0341901672769
 3300.0     120.0598480984131
 3400.0     118.0826470450786
 3500.0     116.1025542352163
 3600.0     114.1195237236385
 3700.0     112.1335263722205
 3800.0     110.1445188498705
 3900.0     108.1524695117713
 4000.0     106.1573138270353
 4100.0     104.1590329469498
 4200.0     102.1575933492345
 4300.0     100.1529132583473
 4400.0      98.1450074727826
 4500.0      96.1337679075984
 4600.0      94.1192272506809
 4700.0      92.1022361142073
 4800.0      90.0837151134034
 4900.0      88.0649877968799
 5000.0      86.0464382655641
 5100.0      84.0281741637127
 5200.0      82.0158783247309
 5300.0      80.0050499764609
 5400.0      77.9955612123431
 5500.0      75.9883021860046
 5600.0      74.0084165253247
 5700.0      72.0177400443845
 5800.0      70.0503283670059
 5900.0      68.0709087600499
 6000.0      66.1106317372742
# P = 1.000000 (GPa)
    1.0     184.7798034315596
  100.0     184.5164268966036
  200.0     183.4023393442642
  300.0     181.8132399322381
  400.0     180.0463437474637
  500.0     178.2099554670778
  600.0     176.3413109441041
  700.0     174.4551446634415
  800.0     172.5581731128664
  900.0     170.6538052546529
 1000.0     168.7439479246545
 1100.0     166.8297303043068
 1200.0     164.9118501778254
 1300.0     162.9907578397905
 1400.0     161.0667577212176
 1500.0     159.1400413324762
 1600.0     157.2107407533816
 1700.0     155.2789361116305
 1800.0     153.3446963079795
 1900.0     151.4080305196501
 2000.0     149.4689755743131
 2100.0     147.5275021550763
 2200.0     145.5836332042293
 2300.0     143.6373327380365
 2400.0     141.6885842802085
 2500.0     139.7373742648945
 2600.0     137.7836621477821
 2700.0     135.8274066208183
 2800.0     133.8685912305533
 2900.0     131.9071800775058
 3000.0     129.9431191307452
 3100.0     127.9763936050741
 3200.0     126.0069605972878
 3300.0     124.0347745093717
 3400.0     122.0597970413181
 3500.0     120.0819726729643
 3600.0     118.1012859279280
 3700.0     116.1176908085130
 3800.0     114.1311384966441
 3900.0     112.1415951525804
 4000.0     110.1490026190234
 4100.0     108.1533399302484
 4200.0     106.1545623023558
 4300.0     104.1526075375814
 4400.0     102.1474704134296
 4500.0     100.1390787489559
 4600.0      98.1274037412071
 4700.0      96.1124204842467
 4800.0      94.0939459796897
 4900.0      92.0727253704027
 5000.0      90.0497354803907
 5100.0      88.0255731394276
 5200.0      86.0023578145883
 5300.0      83.9799468058253
 5400.0      81.9584147515050
 5500.0      79.9383256429414
 5600.0      77.9320478357790
 5700.0      75.9222197074996
 5800.0      73.9265311184354
 5900.0      71.9262047053835
 6000.0      69.9388040682179
# P = 2.000000 (GPa)
    1.0     188.7196604207605
  100.0     188.4543583746438
  200.0     187.3418499220778
  300.0     185.7548690802192
  400.0     183.9890363556750
  500.0     182.1530645271997
  600.0     180.2845737968817
  700.0     178.3984856973145
  800.0     176.5016181631374
  900.0     174.5974218291540
 1000.0     172.6878314989208
 1100.0     170.7739762269530
 1200.0     168.8565696026915
 1300.0     166.9360556622726
 1400.0     165.0127375140328
 1500.0     163.0867960842054
 1600.0     161.1583780351715
 1700.0     159.2275423039254
 1800.0     157.2943649787391
 1900.0     155.3588507541506
 2000.0     153.4210278975828
 2100.0     151.4808845841907
 2200.0     149.5384178232543
 2300.0     147.5936009100984
 2400.0     145.6463958643649
 2500.0     143.6968203253618
 2600.0     141.7447996309105
 2700.0     139.7903280355638
 2800.0     137.8333452455112
 2900.0     135.8738423820035
 3000.0     133.9117561303106
 3100.0     131.9470657798464
 3200.0     129.9797182887438
 3300.0     128.0096992221131
 3400.0     126.0369485361491
 3500.0     124.0614049569819
 3600.0     122.0830551041913
 3700.0     120.1018517814699
 3800.0     118.1177546955975
 3900.0     116.1307180115564
 4000.0     114.1406947877469
 4100.0     112.1476406675594
 4200.0     110.1515337828805
 4300.0     108.1523050697577
 4400.0     106.1499376641236
 4500.0     104.1443775622091
 4600.0     102.1355800363241
 4700.0     100.1235060706042
 4800.0      98.1080832624288
 4900.0      96.0893533589409
 5000.0      94.0671101387063
 5100.0      92.0417644031970
 5200.0      90.0142291394724
 5300.0      87.9856518900889
 5400.0      85.9565198074455
 5500.0      83.9275500169345
 5600.0      81.9037787300646
 5700.0      79.8795745447508
 5800.0      77.8628491852442
 5900.0      75.8453910313151
 6000.0      73.8360165156146
# P = 3.000000 (GPa)
    1.0     192.6595109819547
  100.0     192.3922979619146
  200.0     191.2813530165571
  300.0     189.6964957742743
  400.0     187.9317309230834
  500.0     186.0961730643993
  600.0     184.2278348791827
  700.0     182.3418278063994
  800.0     180.4450597900289
  900.0     178.5410409669031
 1000.0     176.6317124959322
 1100.0     174.7182286809974
 1200.0     172.8012931609401
 1300.0     170.8813524979654
 1400.0     168.9587114073264
 1500.0     167.0335559961712
 1600.0     165.1060100422301
 1700.0     163.1761463785641
 1800.0     161.2440348172735
 1900.0     159.3096724442844
 2000.0     157.3730888579269
 2100.0     155.4342608154417
 2200.0     153.4931885765457
 2300.0     151.5498529259023
 2400.0     149.6042098232192
 2500.0     147.6562532892490
 2600.0     145.7059502569146
 2700.0     143.7532341009493
 2800.0     141.7980961118457
 2900.0     139.8405071761216
 3000.0     137.8803880560495
 3100.0     135.9177358104731
 3200.0     133.9524969434866
 3300.0     131.9846276424412
 3400.0     130.0140921138479
 3500.0     128.0408347025418
 3600.0     126.0648214166523
 3700.0     124.0860105879409
 3800.0     122.1043668000412
 3900.0     120.1198358380378
 4000.0     118.1323746548429
 4100.0     116.1419412754212
 4200.0     114.1485057363700
 4300.0     112.1519955579597
 4400.0     110.1524042618221
 4500.0     108.1496724227530
 4600.0     106.1437556370625
 4700.0     104.1346027348597
 4800.0     102.1221719685609
 4900.0     100.1064341805438
 5000.0      98.0873497149649
 5100.0      96.0648988563112
 5200.0      94.0388657304375
 5300.0      92.0095462752080
 5400.0      89.9776329718286
 5500.0      87.9441505600539
 5600.0      85.9107765350996
 5700.0      83.8771347298832
 5800.0      81.8462263214208
 5900.0      79.8157874772775
 6000.0      77.7896635225102
# P = 4.000000 (GPa)
    1.0     196.5993645200094
  100.0     196.3302310538230
  200.0     195.2208526493788
  300.0     193.6381257760262
  400.0     191.8744244851810
  500.0     190.0392865634633
  600.0     188.1710939431091
  700.0     186.2851636768528
  800.0     184.3885033669145
  900.0     182.4846579740415
 1000.0     180.5755956979502
 1100.0     178.6624786974561
 1200.0     176.7460128999991
 1300.0     174.8266474803146
 1400.0     172.9046888716088
 1500.0     170.9803086097020
 1600.0     169.0536417876999
 1700.0     167.1247507922112
 1800.0     165.1937009060356
 1900.0     163.2604927930501
 2000.0     161.3251429236020
 2100.0     159.3876339494300
 2200.0     157.4479762487581
 2300.0     155.5061141160179
 2400.0     153.5620298972601
 2500.0     151.6157015434506
 2600.0     149.6670912618352
 2700.0     147.7161560731323
 2800.0     145.7628559389950
 2900.0     143.8071609409632
 3000.0     141.8490178143473
 3100.0     139.8884026712882
 3200.0     137.9252561376353
 3300.0     135.9595633452354
 3400.0     133.9912446253322
 3500.0     132.0202644847950
 3600.0     130.0465902973622
 3700.0     128.0701806097128
 3800.0     126.0909798315115
 3900.0     124.1089573120222
 4000.0     122.1240563871985
 4100.0     120.1362431819087
 4200.0     118.1454767196796
 4300.0     116.1516941184917
 4400.0     114.1548754987396
 4500.0     112.1549661269901
 4600.0     110.1519249602804
 4700.0     108.1457018165916
 4800.0     106.1362501352065
 4900.0     104.1235390709166
 5000.0     102.1075382524609
 5100.0     100.0881906869700
 5200.0      98.0653756862081
 5300.0      96.0392167280765
 5400.0      94.0095108363152
 5500.0      91.9763025243636
 5600.0      89.9402085778070
 5700.0      87.9022304366603
 5800.0      85.8636062809418
 5900.0      83.8247137827180
 6000.0      81.7871395319608
# P = 5.000000 (GPa)
    1.0     200.5392241104700
  100.0     200.2681664320381
  200.0     199.1603618928633
  300.0     197.5797544611652
  400.0     195.8171153877865
  500.0     193.9823923220588
  600.0     192.1143544252278
  700.0     190.2285044283452
  800.0     188.3319496755346
  900.0     186.4282764950937
 1000.0     184.5194821442542
 1100.0     182.6067306656923
 1200.0     180.6907328059754
 1300.0     178.7719485959419
 1400.0     176.8506670025195
 1500.0     174.9270699158131
 1600.0     173.0012757377029
 1700.0     171.0733599855718
 1800.0     169.1433730099668
 1900.0     167.2113152698818
 2000.0     165.2772048679073
 2100.0     163.3410198578870
 2200.0     161.4027515434980
 2300.0     159.4623718978605
 2400.0     157.5198349748429
 2500.0     155.5751415633597
 2600.0     153.6282372647390
 2700.0     151.6790686809501
 2800.0     149.7276089716232
 2900.0     147.7738267386442
 3000.0     145.8176546876018
 3100.0     143.8590746736049
 3200.0     141.8980303186748
 3300.0     139.9344838970835
 3400.0     137.9683896380807
 3500.0     135.9996881928081
 3600.0     134.0283531560127
 3700.0     132.0543373392164
 3800.0     130.0776021014218
 3900.0     128.0980868235386
 4000.0     126.1157427251431
 4100.0     124.1305465466500
 4200.0     122.1424503499391
 4300.0     120.1513861261044
 4400.0     118.1573459237737
 4500.0     116.1602672304518
 4600.0     114.1600997971394
 4700.0     112.1568054148242
 4800.0     110.1503286658843
 4900.0     108.1406473604991
 5000.0     106.1277232031444
 5100.0     104.1114968744949
 5200.0     102.0918494422914
 5300.0     100.0689229833448
 5400.0      98.0424767821328
 5500.0      96.0126311617755
 5600.0      93.9792451326186
 5700.0      91.9421918388306
 5800.0      89.9019328177763
 5900.0      87.8594896870824
 6000.0      85.8158389870077
# P = 6.000000 (GPa)
    1.0     204.4790780831799
  100.0     204.2061022759515
  200.0     203.0998658584215
  300.0     201.5213815804664
  400.0     199.7598119577290
  500.0     197.9255116545977
  600.0     196.0576163670243
  700.0     194.1718479488637
  800.0     192.2753910715907
  900.0     190.3718920286344
 1000.0     188.4633581256972
 1100.0     186.5509742838877
 1200.0     184.6354587909242
 1300.0     182.7172471917601
 1400.0     180.7966434055592
 1500.0     178.8738236737513
 1600.0     176.9489119959913
 1700.0     175.0219625265853
 1800.0     173.0930376373799
 1900.0     171.1621292581420
 2000.0     169.2292629190871
 2100.0     167.2943964287435
 2200.0     165.3575314241302
 2300.0     163.4186287273805
 2400.0     161.4776526929764
 2500.0     159.5345877492926
 2600.0     157.5893770952756
 2700.0     155.6419823116509
 2800.0     153.6923625784000
 2900.0     151.7404837596967
 3000.0     149.7862853881820
 3100.0     147.8297357134869
 3200.0     145.8707973530588
 3300.0     143.9094122700199
 3400.0     141.9455408237773
 3500.0     139.9791213566816
 3600.0     138.0101255892637
 3700.0     136.0385012021224
 3800.0     134.0642064785558
 3900.0     132.0872026366204
 4000.0     130.1074292449336
 4100.0     128.1248448590205
 4200.0     126.1394212749576
 4300.0     124.1510795846094
 4400.0     122.1598168463549
 4500.0     120.1655573116747
 4600.0     118.1682717545513
 4700.0     116.1679105943756
 4800.0     114.1644075170009
 4900.0     112.1577483968391
 5000.0     110.1479055080074
 5100.0     108.1348037836553
 5200.0     106.1183326219845
 5300.0     104.0986298097804
 5400.0     102.0754379226354
 5500.0     100.0489202526766
 5600.0      98.0188702761633
 5700.0      95.9853026496248
 5800.0      93.9481930678750
 5900.0      91.9074349298170
 6000.0      89.8631563306969
# P = 7.000000 (GPa)
    1.0     208.4189296556083
  100.0     208.1440362301829
  200.0     207.0393659795212
  300.0     205.4630105660275
  400.0     203.7024996518084
  500.0     201.8686173242310
  600.0     200.0008779472587
  700.0     198.1151840414400
  800.0     196.2188334119453
  900.0     194.3155089570272
 1000.0     192.4072469011252
 1100.0     190.4952287496548
 1200.0     188.5801778759192
 1300.0     186.6625426753921
 1400.0     184.7426212879450
 1500.0     182.8205802993038
 1600.0     180.8965413992015
 1700.0     178.9705670723794
 1800.0     177.0427098287460
 1900.0     175.1129551590355
 2000.0     173.1813204397873
 2100.0     171.2477754816533
 2200.0     169.3123111559531
 2300.0     167.3748879936308
 2400.0     165.4354670255929
 2500.0     163.4940313895022
 2600.0     161.5505236057088
 2700.0     159.6048989649028
 2800.0     157.6571193281774
 2900.0     155.7071505516888
 3000.0     153.7549219028557
 3100.0     151.8004142745585
 3200.0     149.8435621307761
 3300.0     147.8843400708433
 3400.0     145.9226829378499
 3500.0     143.9585478289882
 3600.0     141.9918841803397
 3700.0     140.0226660323552
 3800.0     138.0508270515932
 3900.0     136.0763273637376
 4000.0     134.0991145492086
 4100.0     132.1191496108545
 4200.0     130.1363903745718
 4300.0     128.1507755897123
 4400.0     126.1622746592114
 4500.0     124.1708531430802
 4600.0     122.1764468492970
 4700.0     120.1790075545143
 4800.0     118.1784865689612
 4900.0     116.1748608402406
 5000.0     114.1680827003136
 5100.0     112.1581111386076
 5200.0     110.1448128728084
 5300.0     108.1283242440447
 5400.0     106.1084071742852
 5500.0     104.0852003813988
 5600.0     102.0585153055275
 5700.0     100.0283617584669
 5800.0      97.9946866966583
 5900.0      95.9574780561627
 6000.0      93.9166494791706
# P = 8.000000 (GPa)
    1.0     212.3587877667309
  100.0     212.0819723376502
  200.0     210.9788682833729
  300.0     209.4046403416171
  400.0     207.6451930884192
  500.0     205.8117240622741
  600.0     203.9441334512102
  700.0     202.0585266885141
  800.0     200.1622774081425
  900.0     198.2591278650209
 1000.0     196.3511304195618
 1100.0     194.4394784126214
 1200.0     192.5249009757775
 1300.0     190.6078438339850
 1400.0     188.6885917639412
 1500.0     186.7673350904118
 1600.0     184.8441780081009
 1700.0     182.9191757687406
 1800.0     180.9923781872843
 1900.0     179.0637741995654
 2000.0     177.1333774703713
 2100.0     175.2011469165761
 2200.0     173.2670898830334
 2300.0     171.3311452129409
 2400.0     169.3932813295385
 2500.0     167.4534707748642
 2600.0     165.5116618241999
 2700.0     163.5678056279252
 2800.0     161.6218737109951
 2900.0     159.6738047035676
 3000.0     157.7235508333071
 3100.0     155.7710783543324
 3200.0     153.8163304049584
 3300.0     151.8592699488245
 3400.0     149.8998416811513
 3500.0     147.9379757123377
 3600.0     145.9736585349104
 3700.0     144.0068279300369
 3800.0     142.0374377851889
 3900.0     140.0654482345453
 4000.0     138.0907949514573
 4100.0     136.1134505975302
 4200.0     134.1333651504100
 4300.0     132.1504742454255
 4400.0     130.1647587931990
 4500.0     128.1761524554727
 4600.0     126.1846232840137
 4700.0     124.1901069806264
 4800.0     122.1925660953892
 4900.0     120.1919615188999
 5000.0     118.1882684990355
 5100.0     116.1814151307971
 5200.0     114.1712952085317
 5300.0     112.1580221412068
 5400.0     110.1413702162053
 5500.0     108.1214891444906
 5600.0     106.0981513572054
 5700.0     104.0714118464895
 5800.0     102.0411937952071
 5900.0     100.0074829379988
 6000.0      97.9702005917397
# P = 9.000000 (GPa)
    1.0     216.2986393388952
  100.0     216.0199072720335
  200.0     214.9183759511887
  300.0     213.3462671907587
  400.0     211.5878909615035
  500.0     209.7548394245204
  600.0     207.8873943693103
  700.0     206.0018656988795
  800.0     204.1057213973015
  900.0     202.2027424458533
 1000.0     200.2950105218067
 1100.0     198.3837293773994
 1200.0     196.4696228112196
 1300.0     194.5531368280097
 1400.0     192.6345740670539
 1500.0     190.7140953780700
 1600.0     188.7918124109137
 1700.0     186.8677813939700
 1800.0     184.9420436684738
 1900.0     183.0145962098131
 2000.0     181.0854354755944
 2100.0     179.1545340153013
 2200.0     177.2218699924593
 2300.0     175.2874057421010
 2400.0     173.3510962760685
 2500.0     171.4129150403846
 2600.0     169.4728116551497
 2700.0     167.5307353041116
 2800.0     165.5866246097659
 2900.0     163.6404711623742
 3000.0     161.6921838246101
 3100.0     159.7417446751131
 3200.0     157.7891022198167
 3300.0     155.8341971464460
 3400.0     153.8769801658002
 3500.0     151.9174069618209
 3600.0     149.9554224577432
 3700.0     147.9909831222230
 3800.0     146.0240560576887
 3900.0     144.0545701017016
 4000.0     142.0824836462686
 4100.0     140.1077499475645
 4200.0     138.1303359142007
 4300.0     136.1501605169653
 4400.0     134.1672184699386
 4500.0     132.1814444979759
 4600.0     130.1927896741006
 4700.0     128.2012105842982
 4800.0     126.2066419350916
 4900.0     124.2090713343107
 5000.0     122.2084454994806
 5100.0     120.2047235280567
 5200.0     118.1977741494900
 5300.0     116.1877234802600
 5400.0     114.1743465995410
 5500.0     112.1577658991786
 5600.0     110.1378029110289
 5700.0     108.1144662144009
 5800.0     106.0876979144518
 5900.0     104.0574914380065
 6000.0     102.0237585870619
# P = 10.000000 (GPa)
    1.0     220.2384925219461
  100.0     219.9578410093328
  200.0     218.8578800505709
  300.0     217.2878965497344
  400.0     215.5305810878950
  500.0     213.6979466665597
  600.0     211.8306563257860
  700.0     209.9452037935347
  800.0     208.0491677015118
  900.0     206.1463626450830
 1000.0     204.2388949501045
 1100.0     202.3279790457591
 1200.0     200.4143417254767
 1300.0     198.4984341836654
 1400.0     196.5805513254513
 1500.0     194.6608508627037
 1600.0     192.7394426153514
 1700.0     190.8163871102587
 1800.0     188.8917151419606
 1900.0     186.9654164093907
 2000.0     185.0374924822938
 2100.0     183.1079100580555
 2200.0     181.1766464733714
 2300.0     179.2436662792186
 2400.0     177.3089075978992
 2500.0     175.3723586776827
 2600.0     173.4339543531559
 2700.0     171.4936428999241
 2800.0     169.5513796156092
 2900.0     167.6071289741540
 3000.0     165.6608208412927
 3100.0     163.7124242405138
 3200.0     161.7618628735274
 3300.0     159.8091260386867
 3400.0     157.8541339016204
 3500.0     155.8968302438394
 3600.0     153.9371866368827
 3700.0     151.9751529028051
 3800.0     150.0106705748210
 3900.0     148.0436940856868
 4000.0     146.0741669117359
 4100.0     144.1020537015306
 4200.0     142.1273056098017
 4300.0     140.1498634581611
 4400.0     138.1696934871516
 4500.0     136.1867422060127
 4600.0     134.2009676379447
 4700.0     132.2123099305758
