# T (K)      C_P (J K^-1 mol^-1)
# P = 0.000000 (GPa)
    1.0       1.0000051916804
  100.0      15.0320267602626
  200.0      33.7901371051038
  300.0      39.3987954189129
  400.0      44.0466660721280
  500.0      45.9808512308475
  600.0      47.4440681990543
  700.0      48.3503198858833
  800.0      49.0430098979220
  900.0      49.5727193379551
 1000.0      50.0107236915063
 1100.0      50.3859236434609
 1200.0      50.7206860206536
 1300.0      51.0278688334807
 1400.0      51.3175898458197
 1500.0      51.5954564944813
 1600.0      51.8672201516028
 1700.0      52.1348220244922
 1800.0      52.4034086675759
 1900.0      52.6721381089217
 2000.0      52.9459023049077
 2100.0      53.2231499261833
 2200.0      53.5079767029610
 2300.0      53.7999454902986
 2400.0      54.0995272465608
 2500.0      54.4100007113039
 2600.0      54.7306157393124
 2700.0      55.0626163493167
 2800.0      55.4065413328650
 2900.0      55.7658332709683
 3000.0      56.1372608822679
 3100.0      56.5263321532470
 3200.0      56.9304851597675
 3300.0      57.3537645616488
 3400.0      57.7961537281493
 3500.0      58.2577659785312
 3600.0      58.7418699761095
 3700.0      59.2500707900689
 3800.0      59.7816668391319
 3900.0      60.3420487321508
 4000.0      60.9290997966166
 4100.0      61.5474478339246
 4200.0      62.2004461915149
 4300.0      62.8853688441723
 4400.0      63.6117730485909
 4500.0      64.3767861037536
 4600.0      65.1875061894327
 4700.0      66.0455362085958
 4800.0      66.9483126339682
 4900.0      67.9054901628595
 5000.0      68.9111106593306
 5100.0      69.9852099919325
 5200.0      71.0810025499191
 5300.0      72.2835734891135
 5400.0      73.4915289898826
 5500.0      74.8022315107295
 5600.0      76.1521866447339
 5700.0      77.5753821443139
 5800.0      79.0513731728701
 5900.0      80.6004924133582
 6000.0      82.1748548476974
# P = 1.000000 (GPa)
    1.0       1.0000046684773
  100.0      15.0129950431011
  200.0      33.7589174424910
  300.0      39.3719698976149
  400.0      44.0179332107405
  500.0      45.9498588729953
  600.0      47.4089352582400
  700.0      48.3103524891895
  800.0      48.9974624864313
  900.0      49.5210551761072
 1000.0      49.9524304616832
 1100.0      50.3205247687373
 1200.0      50.6477063623017
 1300.0      50.9468380113206
 1400.0      51.2279989892799
 1500.0      51.4968028129897
 1600.0      51.7589458133125
 1700.0      52.0163906911208
 1800.0      52.2741794394776
 1900.0      52.5315257113974
 2000.0      52.7931855809410
 2100.0      53.0576594257457
 2200.0      53.3289165495748
 2300.0      53.6064996211709
 2400.0      53.8908669501471
 2500.0      54.1851461308368
 2600.0      54.4885865231554
 2700.0      54.8023469579808
 2800.0      55.1269001273315
 2900.0      55.4655246723531
 3000.0      55.8150365579645
 3100.0      56.1806931041300
 3200.0      56.5599304848781
 3300.0      56.9565938681458
 3400.0      57.3705583592411
 3500.0      57.8018271584516
 3600.0      58.2534478190586
 3700.0      58.7268651378542
 3800.0      59.2211972022719
 3900.0      59.7415597557141
 4000.0      60.2856709970550
 4100.0      60.8578529765731
 4200.0      61.4610644753125
 4300.0      62.0924631446334
 4400.0      62.7610054098977
 4500.0      63.4635143686045
 4600.0      64.2065688719182
 4700.0      64.9922519115447
 4800.0      65.8196299857520
 4900.0      66.6992393958584
 5000.0      67.6250755210098
 5100.0      68.6176809186956
 5200.0      69.6310472876462
 5300.0      70.7483040312746
 5400.0      71.8720501696827
 5500.0      73.0992747110953
 5600.0      74.3602201160920
 5700.0      75.6977506930268
 5800.0      77.0879434092493
 5900.0      78.5552268032270
 6000.0      80.0536359274783
# P = 2.000000 (GPa)
    1.0       1.0000041955913
  100.0      14.9960894898272
  200.0      33.7309095120789
  300.0      39.3474392924810
  400.0      43.9912797210208
  500.0      45.9208195328342
  600.0      47.3758445370482
  700.0      48.2726069992066
  800.0      48.9543947124987
  900.0      49.4721854563411
 1000.0      49.8972941827751
 1100.0      50.2586909297071
 1200.0      50.5787412677105
 1300.0      50.8703170146923
 1400.0      51.1434626504580
 1500.0      51.4037994894638
 1600.0      51.6569697177262
 1700.0      51.9049507171573
 1800.0      52.1526940201219
 1900.0      52.3994560219864
 2000.0      52.6498832516386
 2100.0      52.9025111041912
 2200.0      53.1612025826792
 2300.0      53.4254901929725
 2400.0      53.6957999319808
 2500.0      53.9751535887291
 2600.0      54.2627809727796
 2700.0      54.5597651889685
 2800.0      54.8665431782475
 2900.0      55.1862281062637
 3000.0      55.5156858077931
 3100.0      55.8599628681517
 3200.0      56.2164874794525
 3300.0      56.5889265140181
 3400.0      56.9770756972530
 3500.0      57.3808413044645
 3600.0      57.8030768282817
 3700.0      58.2450884499762
 3800.0      58.7058510600864
 3900.0      59.1902420243926
 4000.0      59.6958418837499
 4100.0      60.2267175966619
 4200.0      60.7854890288818
 4300.0      61.3692455723626
 4400.0      61.9863970502590
 4500.0      62.6335766335668
 4600.0      63.3168984664019
 4700.0      64.0380275725227
 4800.0      64.7955720020728
 4900.0      65.6000401585892
 5000.0      66.4469607078722
 5100.0      67.3578301459353
 5200.0      68.2884235831219
 5300.0      69.3194427454862
 5400.0      70.3569759257669
 5500.0      71.4967737796496
 5600.0      72.6670413017039
 5700.0      73.9146091889828
 5800.0      75.2143072706637
 5900.0      76.5927522273332
 6000.0      78.0058373803267
# P = 3.000000 (GPa)
    1.0       1.0000037681416
  100.0      14.9814288403008
  200.0      33.7063612540154
  300.0      39.3253988836593
  400.0      43.9668586886574
  500.0      45.8938135221480
  600.0      47.3448221245753
  700.0      48.2370589966392
  800.0      48.9137391851258
  900.0      49.4259998443190
 1000.0      49.8451639256843
 1100.0      50.2002268452893
 1200.0      50.5135515821440
 1300.0      50.7980154214243
 1400.0      51.0636300333437
 1500.0      51.3160265331742
 1600.0      51.5607959391473
 1700.0      51.7999391297306
 1800.0      52.0383114974938
 1900.0      52.2752216274339
 2000.0      52.5151992668207
 2100.0      52.7568250452233
 2200.0      53.0038599944095
 2300.0      53.2558225305951
 2400.0      53.5131352553485
 2500.0      53.7786873407668
 2600.0      54.0517285907461
 2700.0      54.3332577836601
 2800.0      54.6236732882722
 2900.0      54.9259665531822
 3000.0      55.2370300415774
 3100.0      55.5617177833897
 3200.0      55.8974867999710
 3300.0      56.2478211754049
 3400.0      56.6124440938792
 3500.0      56.9912025079849
 3600.0      57.3867689259408
 3700.0      57.8003292045813
 3800.0      58.2307420646160
 3900.0      58.6826779698135
 4000.0      59.1536098167447
 4100.0      59.6473823784796
 4200.0      60.1663222546002
 4300.0      60.7074819804652
 4400.0      61.2787909181308
 4500.0      61.8767499342420
 4600.0      62.5070684298382
 4700.0      63.1710622795417
 4800.0      63.8670424849512
 4900.0      64.6049570984146
 5000.0      65.3798936593018
 5100.0      66.2124903965733
 5200.0      67.0613832721784
 5300.0      68.0062966140733
 5400.0      68.9571137370791
 5500.0      70.0074604641392
 5600.0      71.0862068524233
 5700.0      72.2411471421310
 5800.0      73.4470960262988
 5900.0      74.7317537427667
 6000.0      76.0524176539232
# P = 4.000000 (GPa)
    1.0       1.0000033816970
  100.0      14.9687126431479
  200.0      33.6848699690118
  300.0      39.3056516973560
  400.0      43.9445879653370
  500.0      45.8688206464137
  600.0      47.3158582878134
  700.0      48.2036739963164
  800.0      48.8754271314579
  900.0      49.3823914372969
 1000.0      49.7958961723185
 1100.0      50.1449511554408
 1200.0      50.4519161000914
 1300.0      50.7296694422685
 1400.0      50.9881941317013
 1500.0      51.2331268148820
 1600.0      51.4700128813874
 1700.0      51.7008747272159
 1800.0      51.9304807805719
 1900.0      52.1581916833181
 2000.0      52.3884266326862
 2100.0      52.6198163721909
 2200.0      52.8560126532504
 2300.0      53.0965395922713
 2400.0      53.3417947052357
 2500.0      53.5945752648813
 2600.0      53.8541234472805
 2700.0      54.1213795171029
 2800.0      54.3967185159877
 2900.0      54.6829810132207
 3000.0      54.9771427728242
 3100.0      55.2838500230137
 3200.0      55.6005818027152
 3300.0      55.9306948376771
 3400.0      56.2738256863395
 3500.0      56.6297684020484
 3600.0      57.0010585859385
 3700.0      57.3887670683706
 3800.0      57.7916485547154
 3900.0      58.2142012500795
 4000.0      58.6538128572893
 4100.0      59.1141353635828
 4200.0      59.5972314284724
 4300.0      60.1001598611795
 4400.0      60.6304085850161
 4500.0      61.1843802307975
 4600.0      61.7674545512920
 4700.0      62.3806450472709
 4800.0      63.0220423769238
 4900.0      63.7010861556264
 5000.0      64.4125950160986
 5100.0      65.1762099330659
 5200.0      65.9515336926725
 5300.0      66.8152440294055
 5400.0      67.6810009177101
 5500.0      68.6415743852723
 5600.0      69.6288713535526
 5700.0      70.6900304363297
 5800.0      71.8004759071901
 5900.0      72.9883225883695
 6000.0      74.2117544474271
# P = 5.000000 (GPa)
    1.0       1.0000030324203
  100.0      14.9576166329367
  200.0      33.6659432373274
  300.0      39.2878636644050
  400.0      43.9241937008836
  500.0      45.8456348425100
  600.0      47.2887964096568
  700.0      48.1723347859944
  800.0      48.8393569663246
  900.0      49.3412504789392
 1000.0      49.7493544990604
 1100.0      50.0926949638199
 1200.0      50.3936299248157
 1300.0      50.6650385320063
 1400.0      50.9168721684363
 1500.0      51.1547758680965
 1600.0      51.3842493271642
 1700.0      51.6073379097774
 1800.0      51.8287251924150
 1900.0      52.0478249676548
 2000.0      52.2689529242587
 2100.0      52.4907883006468
 2200.0      52.7168881630867
 2300.0      52.9467720924762
 2400.0      53.1808329069334
 2500.0      53.4217586192489
 2600.0      53.6688078417600
 2700.0      53.9228592059989
 2800.0      54.1842562727040
 2900.0      54.4557379342291
 3000.0      54.7343150288556
 3100.0      55.0244779132594
 3200.0      55.3237282707049
 3300.0      55.6352719098937
 3400.0      55.9587231200752
 3500.0      56.2938072680552
 3600.0      56.6429199217872
 3700.0      57.0070684458478
 3800.0      57.3849072732908
 3900.0      57.7807695015115
 4000.0      58.1919879211318
 4100.0      58.6220495525865
 4200.0      59.0727825428165
 4300.0      59.5412602140322
 4400.0      60.0345877037281
 4500.0      60.5491004195623
 4600.0      61.0898851315984
 4700.0      61.6577060019280
 4800.0      62.2504828745117
 4900.0      62.8772121641919
 5000.0      63.5325227605605
 5100.0      64.2351345090820
 5200.0      64.9457033833141
 5300.0      65.7380066717872
 5400.0      66.5280828188612
 5500.0      67.4051836223076
 5600.0      68.3037064778801
 5700.0      69.2713997377805
 5800.0      70.2860100978307
 5900.0      71.3757714142756
 6000.0      72.4993468875470
# P = 6.000000 (GPa)
    1.0       1.0000027167702
  100.0      14.9478548473799
  200.0      33.6491466147169
  300.0      39.2717387680600
  400.0      43.9054249002981
  500.0      45.8240464710848
  600.0      47.2634396517731
  700.0      48.1428525059943
  800.0      48.8053465508548
  900.0      49.3024057418884
 1000.0      49.7053735088351
 1100.0      50.0432877586058
 1200.0      50.3385008316236
 1300.0      50.6038989560117
 1400.0      50.8494057833717
 1500.0      51.0806772593077
 1600.0      51.3031677278090
 1700.0      51.5189452286365
 1800.0      51.7326142597191
 1900.0      51.9436394843052
 2000.0      52.1562382833848
 2100.0      52.3691382548615
 2200.0      52.5858059080016
 2300.0      52.8057639938449
 2400.0      53.0294004939285
 2500.0      53.2593035979123
 2600.0      53.4947485541209
 2700.0      53.7365521721160
 2800.0      53.9850488969156
 2900.0      54.2428490165694
 3000.0      54.5070443153518
 3100.0      54.7819432808678
 3200.0      55.0650894243431
 3300.0      55.3595704204530
 3400.0      55.6649371500742
 3500.0      55.9808999697604
 3600.0      56.3097184263104
 3700.0      56.6523205516602
 3800.0      57.0073124388919
 3900.0      57.3788655084958
 4000.0      57.7642631486622
 4100.0      58.1668572181302
 4200.0      58.5882718781791
 4300.0      59.0256054534599
 4400.0      59.4856091020901
 4500.0      59.9645877659571
 4600.0      60.4673737968208
 4700.0      60.9945158760494
 4800.0      61.5437997995463
 4900.0      62.1238385860800
 5000.0      62.7291238119136
 5100.0      63.3775469800489
 5200.0      64.0308031048292
 5300.0      64.7599874097026
 5400.0      65.4834645557815
 5500.0      66.2872775026682
 5600.0      67.1074709270620
 5700.0      67.9897182575951
 5800.0      68.9123093714030
 5900.0      69.9047603463201
 6000.0      70.9274563060064
# P = 7.000000 (GPa)
    1.0       1.0000024315670
  100.0      14.9391750192198
  200.0      33.6340967243357
  300.0      39.2570151600225
  400.0      43.8880588128568
  500.0      45.8038688471496
  600.0      47.2396116277777
  700.0      48.1150538054916
  800.0      48.7732167397809
  900.0      49.2656680392130
 1000.0      49.6637528934431
 1100.0      49.9965202957310
 1200.0      50.2863146693940
 1300.0      50.5460264616676
 1400.0      50.7855526383306
 1500.0      51.0105571494496
 1600.0      51.2264601190350
 1700.0      51.4353475918033
 1800.0      51.6417580343300
 1900.0      51.8451959416139
 2000.0      52.0497949150976
 2100.0      52.2543224397198
 2200.0      52.4621654562284
 2300.0      52.6728484780798
 2400.0      52.8867555643323
 2500.0      53.1063843531107
 2600.0      53.3310264661989
 2700.0      53.5614523423059
 2800.0      53.7979728015565
 2900.0      54.0431002731830
 3000.0      54.2939805201274
 3100.0      54.5547737697501
 3200.0      54.8230613361269
 3300.0      55.1018028128162
 3400.0      55.3905380711654
 3500.0      55.6889177008102
 3600.0      55.9991114009291
 3700.0      56.3219817761185
 3800.0      56.6560573700591
 3900.0      57.0054089004061
 4000.0      57.3672660909027
 4100.0      57.7448483842390
 4200.0      58.1396163397734
 4300.0      58.5487039244656
 4400.0      58.9785349799047
 4500.0      59.4254038658239
 4600.0      59.8939160177862
 4700.0      60.3844487062218
 4800.0      60.8946792102206
 4900.0      61.4328761220422
 5000.0      61.9934388519258
 5100.0      62.5935125093514
 5200.0      63.1958120891075
 5300.0      63.8689344483865
 5400.0      64.5335084427306
 5500.0      65.2726014594769
 5600.0      66.0238606086093
 5700.0      66.8311771362444
 5800.0      67.6730502507524
 5900.0      68.5777481298260
 6000.0      69.5052617104513
# P = 8.000000 (GPa)
    1.0       1.0000021739439
  100.0      14.9313545709789
  200.0      33.6204551096535
  300.0      39.2434611067927
  400.0      43.8718975617500
  500.0      45.7849354845591
  600.0      47.2171546989476
  700.0      48.0887828321484
  800.0      48.7428062155607
  900.0      49.2308658482569
 1000.0      49.6243077214783
 1100.0      49.9521900318259
 1200.0      50.2368502554907
 1300.0      50.4911808753683
 1400.0      50.7250564089253
 1500.0      50.9441439485627
 1600.0      51.1538346893580
 1700.0      51.3562247067419
 1800.0      51.5557991571604
 1900.0      51.7520966690067
 2000.0      51.9491789392127
 2100.0      52.1458492701628
 2200.0      52.3454219587553
 2300.0      52.5474216768172
 2400.0      52.7522334599471
 2500.0      52.9622680329076
 2600.0      53.1768362183634
 2700.0      53.3966623663225
 2800.0      53.6220460268444
 2900.0      53.8553964064935
 3000.0      54.0939326395588
 3100.0      54.3416603012855
 3200.0      54.5962000401539
 3300.0      54.8604135007674
 3400.0      55.1337926304905
 3500.0      55.4159869391709
 3600.0      55.7090444527045
 3700.0      56.0137818106206
 3800.0      56.3286880421225
 3900.0      56.6576948500234
 4000.0      56.9980288308834
 4100.0      57.3527859829862
 4200.0      57.7232566066403
 4300.0      58.1066493724488
 4400.0      58.5090796581428
 4500.0      58.9268335710613
 4600.0      59.3643319681396
 4700.0      59.8217984989664
 4800.0      60.2968321901723
 4900.0      60.7973923623252
 5000.0      61.3178161890167
 5100.0      61.8745728001941
 5200.0      62.4313766271807
 5300.0      63.0544850252548
 5400.0      63.6667208366774
 5500.0      64.3483785861967
 5600.0      65.0386786841795
 5700.0      65.7798864746535
 5800.0      66.5507632012136
 5900.0      67.3785086926359
 6000.0      68.2229222232286
# P = 9.000000 (GPa)
    1.0       1.0000019413451
  100.0      14.9241971236817
  200.0      33.6079229622982
  300.0      39.2308714576557
  400.0      43.8567655782921
  500.0      45.7670975980280
  600.0      47.1959273059171
  700.0      48.0638992712045
  800.0      48.7139690222053
  900.0      49.1978439043330
 1000.0      49.5868700875234
 1100.0      49.9101138334290
 1200.0      50.1899062636817
 1300.0      50.4391400204949
 1400.0      50.6676718214098
 1500.0      50.8811688499586
 1600.0      51.0849976352183
 1700.0      51.2812616605750
 1800.0      51.4743980404226
 1900.0      51.6639747134287
 2000.0      51.8539857575749
 2100.0      52.0432727229540
 2200.0      52.2350795819673
 2300.0      52.4289408820662
 2400.0      52.6252327724470
 2500.0      52.8262944539421
 2600.0      53.0314514718391
 2700.0      53.2413880631173
 2800.0      53.4563917828796
 2900.0      53.6787793721066
 3000.0      53.9058412777807
 3100.0      54.1414355992918
 3200.0      54.3832375371465
 3300.0      54.6339917985846
 3400.0      54.8931849647101
 3500.0      55.1604295558914
 3600.0      55.4376910331714
 3700.0      55.7257380663372
 3800.0      56.0230093117265
 3900.0      56.3333513814565
 4000.0      56.6539476280143
 4100.0      56.9878127633497
 4200.0      57.3360873729755
 4300.0      57.6960241221135
 4400.0      58.0734960636293
 4500.0      58.4647835443271
 4600.0      58.8741208364226
 4700.0      59.3016251392942
 4800.0      59.7448321142592
 4900.0      60.2114198416893
 5000.0      60.6956843619882
 5100.0      61.2134860732967
 5200.0      61.7295095061988
 5300.0      62.3078151435366
 5400.0      62.8733502933616
 5500.0      63.5038057366007
 5600.0      64.1399537624698
 5700.0      64.8225537433238
 5800.0      65.5306722866409
 5900.0      66.2905701464132
 6000.0      67.0619209365071
# P = 10.000000 (GPa)
    1.0       1.0000017314265
  100.0      14.9175294442279
  200.0      33.5962364859510
  300.0      39.2190645229688
  400.0      43.8425066153267
  500.0      45.7502224045071
  600.0      47.1758024245562
  700.0      48.0402764434977
  800.0      48.6865734639913
  900.0      49.1664614868202
 1000.0      49.5512878816155
 1100.0      49.8701248779355
 1200.0      50.1452987190612
 1300.0      50.3897025485825
 1400.0      50.6131759437859
 1500.0      50.8213855244065
 1600.0      51.0196770432193
 1700.0      51.2101600212658
 1800.0      51.3972272069982
 1900.0      51.5804739347173
 2000.0      51.7638323187931
 2100.0      51.9461769326906
 2200.0      52.1306887034692
 2300.0      52.3169091260371
 2400.0      52.5052093320221
 2500.0      52.6978660002074
 2600.0      52.8942169184259
 2700.0      53.0949077987133
 2800.0      53.3002220313229
 2900.0      53.5123892350356
 3000.0      53.7287638325018
 3100.0      53.9530721709091
 3200.0      54.1830366024761
 3300.0      54.4213065942739
 3400.0      54.6673487752929
 3500.0      54.9207665826157
 3600.0      55.1834316966691
 3700.0      55.4560743825504
 3800.0      55.7371069138813
 3900.0      56.0302570919767
 4000.0      56.3327302900425
 4100.0      56.6474207316019
 4200.0      56.9753509623870
 4300.0      57.3138502517081
 4400.0      57.6685094079144
 4500.0      58.0356611646032
 4600.0      58.4193738643367
