# T (K)      C-ph_V_V (J K^-1 mol^-1)
# V = 188.447500 (a.u.^3)
    5.0       0.0089737093542
  100.0      17.3646638012111
  200.0      32.7288273774817
  300.0      40.3404269142257
  400.0      43.9982567058231
  500.0      45.9344783966734
  600.0      47.0607958485729
  700.0      47.7672903350934
  800.0      48.2373521281272
  900.0      48.5650169013089
 1000.0      48.8021372665383
 1100.0      48.9790728922929
 1200.0      49.1145060253230
 1300.0      49.2204224209104
 1400.0      49.3047881140357
 1500.0      49.3730601583916
 1600.0      49.4290759811161
 1700.0      49.4755964312958
 1800.0      49.5146481396689
 1900.0      49.5477455180019
 2000.0      49.5760383510529
 2100.0      49.6004121309578
 2200.0      49.6215576433733
 2300.0      49.6400201073415
 2400.0      49.6562344491234
 2500.0      49.6705510028942
 2600.0      49.6832544934023
 2700.0      49.6945782331883
 2800.0      49.7047148638344
 2900.0      49.7138245695194
 3000.0      49.7220414200076
 3100.0      49.7294783142080
 3200.0      49.7362308661218
 3300.0      49.7423804839129
 3400.0      49.7479968279373
 3500.0      49.7531397867874
 3600.0      49.7578610763589
 3700.0      49.7622055419039
 3800.0      49.7662122244590
 3900.0      49.7699152391235
 4000.0      49.7733445021784
 4100.0      49.7765263360475
 4200.0      49.7794839749999
 4300.0      49.7822379897686
 4400.0      49.7848066456063
 4500.0      49.7872062054386
 4600.0      49.7894511875241
 4700.0      49.7915545852589
 4800.0      49.7935280553479
 4900.0      49.7953820794404
 5000.0      49.7971261034192
 5100.0      49.7987686578069
 5200.0      49.8003174621562
 5300.0      49.8017795158143
 5400.0      49.8031611770559
 5500.0      49.8044682322574
 5600.0      49.8057059565189
 5700.0      49.8068791669204
 5800.0      49.8079922694189
 5900.0      49.8090493002385
 6000.0      49.8100539624793
# V = 183.116500 (a.u.^3)
    5.0       0.0076134985955
  100.0      16.6263219203666
  200.0      31.8558768709900
  300.0      39.7247332709114
  400.0      43.5874741337022
  500.0      45.6527299709456
  600.0      46.8605161166155
  700.0      47.6204886872128
  800.0      48.1271389546373
  900.0      48.4807820286863
 1000.0      48.7369439119315
 1100.0      48.9282200210209
 1200.0      49.0747059779718
 1300.0      49.1893122196204
 1400.0      49.2806284455475
 1500.0      49.3545438153284
 1600.0      49.4152023433760
 1700.0      49.4655870432632
 1800.0      49.5078885859696
 1900.0      49.5437445584673
 2000.0      49.5743986434212
 2100.0      49.6008088954304
 2200.0      49.6237228729279
 2300.0      49.6437307170403
 2400.0      49.6613032669633
 2500.0      49.6768198398751
 2600.0      49.6905887550223
 2700.0      49.7028626875237
 2800.0      49.7138502871601
 2900.0      49.7237250646596
 3000.0      49.7326322553726
 3100.0      49.7406941694552
 3200.0      49.7480143980232
 3300.0      49.7546811463524
 3400.0      49.7607698950771
 3500.0      49.7663455397812
 3600.0      49.7714641225722
 3700.0      49.7761742421474
 3800.0      49.7805182087768
 3900.0      49.7845329955816
 4000.0      49.7882510261391
 4100.0      49.7917008298088
 4200.0      49.7949075895652
 4300.0      49.7978936020166
 4400.0      49.8006786653297
 4500.0      49.8032804076859
 4600.0      49.8057145664599
 4700.0      49.8079952263893
 4800.0      49.8101350234762
 4900.0      49.8121453201398
 5000.0      49.8140363561600
 5100.0      49.8158173791601
 5200.0      49.8174967577381
 5300.0      49.8190820798330
 5400.0      49.8205802384877
 5500.0      49.8219975068202
 5600.0      49.8233396037277
 5700.0      49.8246117516088
 5800.0      49.8258187271940
 5900.0      49.8269649064076
 6000.0      49.8280543040498
# V = 177.886500 (a.u.^3)
    5.0       0.0064964468251
  100.0      15.8709851117092
  200.0      30.9053427625506
  300.0      39.0339364132205
  400.0      43.1220329009034
  500.0      45.3331819343261
  600.0      46.6342980708899
  700.0      47.4559855813647
  800.0      48.0050513671081
  900.0      48.3889003762459
 1000.0      48.6672487934253
 1100.0      48.8752592440537
 1200.0      49.0346576790825
 1300.0      49.1594246719321
 1400.0      49.2588734701375
 1500.0      49.3393954936612
 1600.0      49.4054916516704
 1700.0      49.4604038861899
 1800.0      49.5065142402674
 1900.0      49.5456041147906
 2000.0      49.5790268972434
 2100.0      49.6078254681628
 2200.0      49.6328137858611
 2300.0      49.6546345530028
 2400.0      49.6738006442486
 2500.0      49.6907253115611
 2600.0      49.7057445074677
 2700.0      49.7191335895786
 2800.0      49.7311199646997
 2900.0      49.7418927614671
 3000.0      49.7516103028779
 3100.0      49.7604059321110
 3200.0      49.7683925933447
 3300.0      49.7756664623881
 3400.0      49.7823098457224
 3500.0      49.7883935115957
 3600.0      49.7939785767817
 3700.0      49.7991180431716
 3800.0      49.8038580565053
 3900.0      49.8082389431877
 4000.0      49.8122960687781
 4100.0      49.8160605523479
 4200.0      49.8195598636987
 4300.0      49.8228183248816
 4400.0      49.8258575331429
 4500.0      49.8286967190494
 4600.0      49.8313530509010
 4700.0      49.8338418944392
 4800.0      49.8361770351973
 4900.0      49.8383708695087
 5000.0      49.8404345691204
 5100.0      49.8423782234978
 5200.0      49.8442109632093
 5300.0      49.8459410672126
 5400.0      49.8475760563950
 5500.0      49.8491227753485
 5600.0      49.8505874640361
 5700.0      49.8519758207545
 5800.0      49.8532930575811
 5900.0      49.8545439493108
 6000.0      49.8557328767430
# V = 172.724000 (a.u.^3)
    5.0       0.0055920107350
  100.0      15.1971471322722
  200.0      29.9287644460743
  300.0      38.2523155568350
  400.0      42.5474229739867
  500.0      44.8997818618172
  600.0      46.2933488627281
  700.0      47.1769418231229
  800.0      47.7688793644531
  900.0      48.1834118968650
 1000.0      48.4843755565980
 1100.0      48.7094862242157
 1200.0      48.8821039664296
 1300.0      49.0172879491050
 1400.0      49.1250836958248
 1500.0      49.2123925499589
 1600.0      49.2840786562000
 1700.0      49.3436480056740
 1800.0      49.3936781112181
 1900.0      49.4360974612384
 2000.0      49.4723717689974
 2100.0      49.5036308483575
 2200.0      49.5307567610430
 2300.0      49.5544461564382
 2400.0      49.5752550778552
 2500.0      49.5936316447298
 2600.0      49.6099402151354
 2700.0      49.6244794723277
 2800.0      49.6374961187679
 2900.0      49.6491953545170
 3000.0      49.6597489740335
 3100.0      49.6693016799353
 3200.0      49.6779760483615
 3300.0      49.6858764650113
 3400.0      49.6930922685045
 3500.0      49.6997002782628
 3600.0      49.7057668407899
 3700.0      49.7113494963599
 3800.0      49.7164983444558
 3900.0      49.7212571685841
 4000.0      49.7256643677058
 4100.0      49.7297537313489
 4200.0      49.7335550876669
 4300.0      49.7370948476867
 4400.0      49.7403964643173
 4500.0      49.7434808210340
 4600.0      49.7463665622832
 4700.0      49.7490703753811
 4800.0      49.7516072318725
 4900.0      49.7539905948784
 5000.0      49.7562325977969
 5100.0      49.7583441987936
 5200.0      49.7603353147553
 5300.0      49.7622149377707
 5400.0      49.7639912366912
 5500.0      49.7656716459189
 5600.0      49.7672629432219
 5700.0      49.7687713181019
 5800.0      49.7702024320004
 5900.0      49.7715614714388
 6000.0      49.7728531950245
# V = 167.696500 (a.u.^3)
    5.0       0.0050998716274
  100.0      14.6552128588939
  200.0      29.0985891056530
  300.0      37.5995016032522
  400.0      42.0968462503864
  500.0      44.5903801168895
  600.0      46.0774192625624
  700.0      47.0240015656320
  800.0      47.6597350253154
  900.0      48.1056954545743
 1000.0      48.4298658494975
 1100.0      48.6725475736419
 1200.0      48.8587622932276
 1300.0      49.0046691771964
 1400.0      49.1210622233547
 1500.0      49.2153648692159
 1600.0      49.2928136644895
 1700.0      49.3571856066351
 1800.0      49.4112590045675
 1900.0      49.4571135516132
 2000.0      49.4963305010553
 2100.0      49.5301291334471
 2200.0      49.5594616291219
 2300.0      49.5850802013051
 2400.0      49.6075853704328
 2500.0      49.6274611904454
 2600.0      49.6451013015158
 2700.0      49.6608284376117
 2800.0      49.6749092005132
 2900.0      49.6875653673708
 3000.0      49.6989826301195
 3100.0      49.7093174116736
 3200.0      49.7187022273617
 3300.0      49.7272499356052
 3400.0      49.7350571330395
 3500.0      49.7422068852148
 3600.0      49.7487709373187
 3700.0      49.7548115149945
 3800.0      49.7603827998153
 3900.0      49.7655321448513
 4000.0      49.7703010813353
 4100.0      49.7747261564495
 4200.0      49.7788396338330
 4300.0      49.7826700819172
 4400.0      49.7862428701466
 4500.0      49.7895805891984
 4600.0      49.7927034082134
 4700.0      49.7956293795961
 4800.0      49.7983746999961
 4900.0      49.8009539345201
 5000.0      49.8033802099773
 5100.0      49.8056653819481
 5200.0      49.8078201796521
 5300.0      49.8098543319201
 5400.0      49.8117766770369
 5500.0      49.8135952587708
 5600.0      49.8153174105393
 5700.0      49.8169498293564
 5800.0      49.8184986409552
 5900.0      49.8199694572688
 6000.0      49.8213674272764
# V = 162.770000 (a.u.^3)
    5.0       0.0036038581423
  100.0      14.0162844656661
  200.0      28.0536940436235
  300.0      36.7442320134055
  400.0      41.4829493808489
  500.0      44.1497414558244
  600.0      45.7529888063673
  700.0      46.7784492624639
  800.0      47.4692714106786
  900.0      47.9548806173423
 1000.0      48.3083886789957
 1100.0      48.5733168376652
 1200.0      48.7767658103223
 1300.0      48.9362757678228
 1400.0      49.0635827379824
 1500.0      49.1667685284805
 1600.0      49.2515400062772
 1700.0      49.3220168405564
 1800.0      49.3812314842652
 1900.0      49.4314551630157
 2000.0      49.4744155843432
 2100.0      49.5114454981749
 2200.0      49.5435860585534
 2300.0      49.5716600132842
 2400.0      49.5963243639638
 2500.0      49.6181088118757
 2600.0      49.6374442043234
 2700.0      49.6546838426289
 2800.0      49.6701196251672
 2900.0      49.6839944064310
 3000.0      49.6965115516839
 3100.0      49.7078423907735
 3200.0      49.7181320823545
 3300.0      49.7275042640907
 3400.0      49.7360647675342
 3500.0      49.7439046064837
 3600.0      49.7511023966500
 3700.0      49.7577263269366
 3800.0      49.7638357747756
 3900.0      49.7694826370654
 4000.0      49.7747124324953
 4100.0      49.7795652190264
 4200.0      49.7840763611046
 4300.0      49.7882771740694
 4400.0      49.7921954677107
 4500.0      49.7958560066068
 4600.0      49.7992809014835
 4700.0      49.8024899431561
 4800.0      49.8055008884778
 4900.0      49.8083297060141
 5000.0      49.8109907877975
 5100.0      49.8134971324063
 5200.0      49.8158605037223
 5300.0      49.8180915689864
 5400.0      49.8202000191827
 5500.0      49.8221946742870
 5600.0      49.8240835755161
 5700.0      49.8258740663800
 5800.0      49.8275728640638
 5900.0      49.8291861224346
 6000.0      49.8307194877777
# V = 153.221000 (a.u.^3)
    5.0       0.0052993157916
  100.0      13.2701148663990
  200.0      26.3999810312909
  300.0      35.2172438518906
  400.0      40.3244608412766
  500.0      43.2894603035186
  600.0      45.1027797169118
  700.0      46.2745645260279
  800.0      47.0691758475189
  900.0      47.6302414025846
 1000.0      48.0399714444803
 1100.0      48.3477455055413
 1200.0      48.5845106190690
 1300.0      48.7703919634417
 1400.0      48.9189041053274
 1500.0      49.0393799683395
 1600.0      49.1384247166683
 1700.0      49.2208151597407
 1800.0      49.2900727141789
 1900.0      49.3488380956914
 2000.0      49.3991221716729
 2100.0      49.4424774901230
 2200.0      49.4801178286762
 2300.0      49.5130029712428
 2400.0      49.5418997821306
 2500.0      49.5674268437174
 2600.0      49.5900875156211
 2700.0      49.6102947186933
 2800.0      49.6283897253215
 2900.0      49.6446565546292
 3000.0      49.6593331077152
 3100.0      49.6726198590352
 3200.0      49.6846866974660
 3300.0      49.6956783534030
 3400.0      49.7057187359274
 3500.0      49.7149144229528
 3600.0      49.7233574880800
 3700.0      49.7311278042718
 3800.0      49.7382949320596
 3900.0      49.7449196756873
 4000.0      49.7510553722429
 4100.0      49.7567489648441
 4200.0      49.7620419002210
 4300.0      49.7669708827616
 4400.0      49.7715685106493
 4500.0      49.7758638146879
 4600.0      49.7798827164539
 4700.0      49.7836484192812
 4800.0      49.7871817430961
 4900.0      49.7905014121268
 5000.0      49.7936243029147
 5100.0      49.7965656587628
 5200.0      49.7993392757121
 5300.0      49.8019576642827
 5400.0      49.8044321905219
 5500.0      49.8067731993288
 5600.0      49.8089901225561
 5700.0      49.8110915739960
 5800.0      49.8130854330402
 5900.0      49.8149789185277
 6000.0      49.8167786540772
# V = 144.009500 (a.u.^3)
    5.0       0.0035737545033
  100.0      12.5745397026066
  200.0      24.8023902067364
  300.0      33.6162301059882
  400.0      39.0755483569051
  500.0      42.3626930404297
  600.0      44.4146841167350
  700.0      45.7572666504360
  800.0      46.6750286702437
  900.0      47.3265945959166
 1000.0      47.8042601827164
 1100.0      48.1640863611214
 1200.0      48.4414891932048
 1300.0      48.6596365850507
 1400.0      48.8341565096909
 1500.0      48.9758792779150
 1600.0      49.0924911892041
 1700.0      49.1895634611839
 1800.0      49.2712107364751
 1900.0      49.3405233305422
 2000.0      49.3998575088130
 2100.0      49.4510344825545
 2200.0      49.4954794008748
 2300.0      49.5343200961266
 2400.0      49.5684583333740
 2500.0      49.5986219559179
 2600.0      49.6254035506615
 2700.0      49.6492894651026
 2800.0      49.6706818270762
 2900.0      49.6899154276998
 3000.0      49.7072707904061
 3100.0      49.7229843782894
 3200.0      49.7372566330562
 3300.0      49.7502583557494
 3400.0      49.7621358084318
 3500.0      49.7730148213063
 3600.0      49.7830041205853
 3700.0      49.7921980414223
 3800.0      49.8006787522905
 3900.0      49.8085180887272
 4000.0      49.8157790728527
 4100.0      49.8225171786700
 4200.0      49.8287813905762
 4300.0      49.8346150927942
 4400.0      49.8400568198777
 4500.0      49.8451408925271
 4600.0      49.8498979583067
 4700.0      49.8543554531639
 4800.0      49.8585379967292
 4900.0      49.8624677320305
 5000.0      49.8661646183698
 5100.0      49.8696466846005
 5200.0      49.8729302488005
 5300.0      49.8760301093411
 5400.0      49.8789597115279
 5500.0      49.8817312933175
 5600.0      49.8843560130573
 5700.0      49.8868440617382
 5800.0      49.8892047618704
 5900.0      49.8914466547688
 6000.0      49.8935775777793
# V = 135.203000 (a.u.^3)
    5.0       0.0074720535941
  100.0      12.4938426143973
  200.0      23.5634176727568
  300.0      32.0727738407882
  400.0      37.7437484437344
  500.0      41.3023574382375
  600.0      43.5767743303269
  700.0      45.0864201402986
  800.0      46.1280431548037
  900.0      46.8722600250378
 1000.0      47.4203194352816
 1100.0      47.8345473013021
 1200.0      48.1546933920976
 1300.0      48.4069435228024
 1400.0      48.6090557762010
 1500.0      48.7733877965133
 1600.0      48.9087387716649
 1700.0      49.0215035592892
 1800.0      49.1164154140898
 1900.0      49.1970357020693
 2000.0      49.2660839775578
 2100.0      49.3256649544259
 2200.0      49.3774274449670
 2300.0      49.4226775225823
 2400.0      49.4624603265664
 2500.0      49.4976200294048
 2600.0      49.5288443643278
 2700.0      49.5566980827421
 2800.0      49.5816483711147
 2900.0      49.6040843572464
 3000.0      49.6243322228894
 3100.0      49.6426670161974
 3200.0      49.6593219611625
 3300.0      49.6744958513111
 3400.0      49.6883589645993
 3500.0      49.7010578276175
 3600.0      49.7127190776500
 3700.0      49.7234526124104
 3800.0      49.7333541735528
 3900.0      49.7425074772343
 4000.0      49.7509859801594
 4100.0      49.7588543506028
 4200.0      49.7661696993615
 4300.0      49.7729826143480
 4400.0      49.7793380337887
 4500.0      49.7852759861499
 4600.0      49.7908322195187
 4700.0      49.7960387389056
 4800.0      49.8009242665353
 4900.0      49.8055146374785
 5000.0      49.8098331407927
 5100.0      49.8139008145781
 5200.0      49.8177367019238
 5300.0      49.8213580735545
 5400.0      49.8247806220366
 5500.0      49.8280186316173
 5600.0      49.8310851271280
 5700.0      49.8339920048489
 5800.0      49.8367501477870
 5900.0      49.8393695274554
 6000.0      49.8418592939251
# V = 126.767500 (a.u.^3)
    5.0       0.0116227604131
  100.0      12.4014742113436
  200.0      22.4232449200134
  300.0      30.5096032433701
  400.0      36.3284439350086
  500.0      40.1521656236025
  600.0      42.6626922965735
  700.0      44.3569481778630
  800.0      45.5386852288157
  900.0      46.3893024907326
 1000.0      47.0190421177666
 1100.0      47.4968640731606
 1200.0      47.8672521766905
 1300.0      48.1597572537999
 1400.0      48.3945470867690
 1500.0      48.5857256776276
 1600.0      48.7433751211564
 1700.0      48.8748458415496
 1800.0      48.9855924815136
 1900.0      49.0797280183909
 2000.0      49.1603988994765
 2100.0      49.2300439421082
 2200.0      49.2905761888154
 2300.0      49.3435127239579
 2400.0      49.3900687271519
 2500.0      49.4312265523374
 2600.0      49.4677871070080
 2700.0      49.5004085144751
 2800.0      49.5296355226291
 2900.0      49.5559220995486
 3000.0      49.5796489573682
 3100.0      49.6011372618502
 3200.0      49.6206594457372
 3300.0      49.6384478031733
 3400.0      49.6547013697224
 3500.0      49.6695914672673
 3600.0      49.6832662013893
 3700.0      49.6958541310728
 3800.0      49.7074672800852
 3900.0      49.7182036214314
 4000.0      49.7281491375372
 4100.0      49.7373795368825
 4200.0      49.7459616909518
 4300.0      49.7539548423307
 4400.0      49.7614116246310
 4500.0      49.7683789269718
 4600.0      49.7748986294892
 4700.0      49.7810082313817
 4800.0      49.7867413890529
 4900.0      49.7921283787499
 5000.0      49.7971964955566
 5100.0      49.8019703985465
 5200.0      49.8064724102350
 5300.0      49.8107227771119
 5400.0      49.8147398969262
 5500.0      49.8185405174816
 5600.0      49.8221399109491
 5700.0      49.8255520270808
 5800.0      49.8287896281921
 5900.0      49.8318644083490
 6000.0      49.8347870988351
# V = 118.669500 (a.u.^3)
    5.0       0.0239419756489
  100.0      12.6040714289600
  200.0      21.5138361498069
  300.0      28.9886309722081
  400.0      34.8161380268978
  500.0      38.8471235207756
  600.0      41.5761424934732
  700.0      43.4534446125218
  800.0      44.7794401941469
  900.0      45.7421988445655
 1000.0      46.4593894211320
 1100.0      47.0060602947616
 1200.0      47.4312894957150
 1300.0      47.7680085988470
 1400.0      48.0388639980147
 1500.0      48.2597866836905
 1600.0      48.4422180570661
 1700.0      48.5945310214441
 1800.0      48.7229581638919
 1900.0      48.8322110803029
 2000.0      48.9259018951625
 2100.0      49.0068354586865
 2200.0      49.0772153495183
 2300.0      49.1387913895580
 2400.0      49.1929668059633
 2500.0      49.2408771195767
 2600.0      49.2834489376218
 2700.0      49.3214442719628
 2800.0      49.3554943020441
 2900.0      49.3861253512591
 3000.0      49.4137790571192
 3100.0      49.4388281681716
 3200.0      49.4615890158083
 3300.0      49.4823314354679
 3400.0      49.5012867150292
 3500.0      49.5186540053378
 3600.0      49.5346055230600
 3700.0      49.5492907985479
 3800.0      49.5628401635510
 3900.0      49.5753676300867
 4000.0      49.5869732787770
 4100.0      49.5977452497520
 4200.0      49.6077614098341
 4300.0      49.6170907547066
 4400.0      49.6257945930760
