# T (K)      C_V_P (J K^-1 mol^-1)
# P = 0.000000 (GPa)
    1.0       1.0000000000000
  100.0      15.0259857239405
  200.0      33.7277823634416
  300.0      39.2101472930497
  400.0      43.7065429249678
  500.0      45.4806425653825
  600.0      46.7817237788654
  700.0      47.5238370132336
  800.0      48.0500115673621
  900.0      48.4100153847000
 1000.0      48.6744288284223
 1100.0      48.8715101434682
 1200.0      49.0230580287695
 1300.0      49.1414163155739
 1400.0      49.2362191304400
 1500.0      49.3126097944171
 1600.0      49.3758819247204
 1700.0      49.4275334553806
 1800.0      49.4722385469178
 1900.0      49.5086902821473
 2000.0      49.5412872653457
 2100.0      49.5679753002480
 2200.0      49.5923210199734
 2300.0      49.6132901486250
 2400.0      49.6308131391940
 2500.0      49.6475198882682
 2600.0      49.6619584676512
 2700.0      49.6746885606267
 2800.0      49.6855163548315
 2900.0      49.6970143844704
 3000.0      49.7051160584913
 3100.0      49.7144120098704
 3200.0      49.7213094043283
 3300.0      49.7287994612054
 3400.0      49.7356400552871
 3500.0      49.7407578741114
 3600.0      49.7460973084837
 3700.0      49.7517367304993
 3800.0      49.7554221629204
 3900.0      49.7607936804171
 4000.0      49.7638756568363
 4100.0      49.7673666472239
 4200.0      49.7722108257868
 4300.0      49.7733979589001
 4400.0      49.7779072504806
 4500.0      49.7797566534816
 4600.0      49.7829760742260
 4700.0      49.7865553331271
 4800.0      49.7862726020773
 4900.0      49.7899866999305
 5000.0      49.7894655565439
 5100.0      49.8028894833547
 5200.0      49.7824977842710
 5300.0      49.8111020732260
 5400.0      49.7860648641950
 5500.0      49.8097858943733
 5600.0      49.7987277211406
 5700.0      49.8063199789511
 5800.0      49.8010931798529
 5900.0      49.8120222766140
 6000.0      49.7943354615096
# P = 1.000000 (GPa)
    1.0       1.0000000000000
  100.0      15.0074228363590
  200.0      33.7004462844985
  300.0      39.1930788042956
  400.0      43.6936082468535
  500.0      45.4715844519136
  600.0      46.7747262165989
  700.0      47.5183884756354
  800.0      48.0455967662743
  900.0      48.4063778290492
 1000.0      48.6713717774669
 1100.0      48.8689062352957
 1200.0      49.0208113434127
 1300.0      49.1394660378612
 1400.0      49.2344959609242
 1500.0      49.3110822962217
 1600.0      49.3744975061917
 1700.0      49.4262924525782
 1800.0      49.4710801147703
 1900.0      49.5076397330092
 2000.0      49.5402884376552
 2100.0      49.5670567623622
 2200.0      49.5914407874202
 2300.0      49.6124458129990
 2400.0      49.6300274981460
 2500.0      49.6467463658319
 2600.0      49.6612124090994
 2700.0      49.6739640252751
 2800.0      49.6848311026534
 2900.0      49.6963108435856
 3000.0      49.7044657533400
 3100.0      49.7137480906740
 3200.0      49.7206779362357
 3300.0      49.7281641555367
 3400.0      49.7350000430407
 3500.0      49.7401461588352
 3600.0      49.7454879870253
 3700.0      49.7511244291272
 3800.0      49.7548232006068
 3900.0      49.7601745780802
 4000.0      49.7632751915679
 4100.0      49.7667826936363
 4200.0      49.7715667440495
 4300.0      49.7728263472858
 4400.0      49.7772864171856
 4500.0      49.7791492128017
 4600.0      49.7823528178602
 4700.0      49.7858986987239
 4800.0      49.7856717942207
 4900.0      49.7893569051039
 5000.0      49.7888982227327
 5100.0      49.8019272859241
 5200.0      49.7822928983543
 5300.0      49.8099532785728
 5400.0      49.7858488262367
 5500.0      49.8087645890731
 5600.0      49.7981579889104
 5700.0      49.8055140260757
 5800.0      49.8004696468906
 5900.0      49.8112524951090
 6000.0      49.7934071915127
# P = 2.000000 (GPa)
    1.0       1.0000000000000
  100.0      14.9909541826098
  200.0      33.6760794521227
  300.0      39.1777456084276
  400.0      43.6818874427343
  500.0      45.4632978432831
  600.0      46.7682628981555
  700.0      47.5133063948320
  800.0      48.0414381199870
  900.0      48.4029168115692
 1000.0      48.6684331315775
 1100.0      48.8663765206933
 1200.0      49.0186046293149
 1300.0      49.1375311608196
 1400.0      49.2327751247002
 1500.0      49.3095545046736
 1600.0      49.3731158162714
 1700.0      49.4250581887748
 1800.0      49.4699325345498
 1900.0      49.5066032145669
 2000.0      49.5393073519968
 2100.0      49.5661586461609
 2200.0      49.5905843342925
 2300.0      49.6116284653213
 2400.0      49.6292706153009
 2500.0      49.6460040245853
 2600.0      49.6604979114205
 2700.0      49.6732707712206
 2800.0      49.6841757507043
 2900.0      49.6956383035710
 3000.0      49.7038444210484
 3100.0      49.7131140267260
 3200.0      49.7200752066573
 3300.0      49.7275580364993
 3400.0      49.7343897778715
 3500.0      49.7395634497857
 3600.0      49.7449081896039
 3700.0      49.7505423551875
 3800.0      49.7542546308222
 3900.0      49.7595873889805
 4000.0      49.7627065109902
 4100.0      49.7662303978872
 4200.0      49.7709579527816
 4300.0      49.7722872144681
 4400.0      49.7767012794985
 4500.0      49.7785775571096
 4600.0      49.7817669811985
 4700.0      49.7852819841937
 4800.0      49.7851090031796
 4900.0      49.7887672829604
 5000.0      49.7883685759588
 5100.0      49.8010252754966
 5200.0      49.7821067797501
 5300.0      49.8088768768013
 5400.0      49.7856530435452
 5500.0      49.8078099749103
 5600.0      49.7976295411301
 5700.0      49.8047635009873
 5800.0      49.7998913898739
 5900.0      49.8105367206346
 6000.0      49.7925422603832
# P = 3.000000 (GPa)
    1.0       1.0000000000000
  100.0      14.9767007716974
  200.0      33.6549473910530
  300.0      39.1643826913825
  400.0      43.6715946557999
  500.0      45.4559463961794
  600.0      46.7624665690347
  700.0      47.5086995887109
  800.0      48.0376286962709
  900.0      48.3997135740024
 1000.0      48.6656854759718
 1100.0      48.8639869821647
 1200.0      49.0164986389428
 1300.0      49.1356650471081
 1400.0      49.2310973340413
 1500.0      49.3080486066046
 1600.0      49.3717419357724
 1700.0      49.4238255505466
 1800.0      49.4687871300197
 1900.0      49.5055717848587
 2000.0      49.5383348737752
 2100.0      49.5652719436557
 2200.0      49.5897424310770
 2300.0      49.6108286721079
 2400.0      49.6285334669098
 2500.0      49.6452846818335
 2600.0      49.6598090277638
 2700.0      49.6726053199429
 2800.0      49.6835485054633
 2900.0      49.6949954729547
 3000.0      49.7032509084212
 3100.0      49.7125086180519
 3200.0      49.7195000399689
 3300.0      49.7269798872074
 3400.0      49.7338079247380
 3500.0      49.7390082195773
 3600.0      49.7443560743564
 3700.0      49.7499883926623
 3800.0      49.7537142019639
 3900.0      49.7590296983143
 4000.0      49.7621671644685
 4100.0      49.7657072747487
 4200.0      49.7703816446247
 4300.0      49.7717779174097
 4400.0      49.7761488915278
 4500.0      49.7780386774576
 4600.0      49.7812153638360
 4700.0      49.7847017268657
 4800.0      49.7845808714580
 4900.0      49.7882143062275
 5000.0      49.7878733321527
 5100.0      49.8001785182087
 5200.0      49.7819376783117
 5300.0      49.8078673834240
 5400.0      49.7854756903426
 5500.0      49.8069172953751
 5600.0      49.7971393253526
 5700.0      49.8040646239929
 5800.0      49.7993553135372
 5900.0      49.8098715293874
 6000.0      49.7917369577103
# P = 4.000000 (GPa)
    1.0       1.0000000000000
  100.0      14.9643642376367
  200.0      33.6366634098025
  300.0      39.1528292329620
  400.0      43.6627031874102
  500.0      45.4495860529565
  600.0      46.7574247524867
  700.0      47.5046545601741
  800.0      48.0342452891729
  900.0      48.3968352910427
 1000.0      48.6631889129930
 1100.0      48.8617923243695
 1200.0      49.0145439963668
 1300.0      49.1339149740407
 1400.0      49.2295075265546
 1500.0      49.3066066303302
 1600.0      49.3704122342077
 1700.0      49.4226191965019
 1800.0      49.4676546934617
 1900.0      49.5045447881817
 2000.0      49.5373649050939
 2100.0      49.5643892732200
 2200.0      49.5889074471188
 2300.0      49.6100386214951
 2400.0      49.6278083090098
 2500.0      49.6445802307020
 2600.0      49.6591375396506
 2700.0      49.6719598549664
 2800.0      49.6829431822579
 2900.0      49.6943780767289
 3000.0      49.7026829931962
 3100.0      49.7119304512718
 3200.0      49.7189512648238
 3300.0      49.7264285126890
 3400.0      49.7332532582775
 3500.0      49.7384792581537
 3600.0      49.7438303639046
 3700.0      49.7494611008259
 3800.0      49.7532002120660
 3900.0      49.7584994811298
 4000.0      49.7616549827928
 4100.0      49.7652110975237
 4200.0      49.7698353064665
 4300.0      49.7712960952764
 4400.0      49.7756266264158
 4500.0      49.7775298961550
 4600.0      49.7806951234760
 4700.0      49.7841548543793
 4800.0      49.7840844061703
 4900.0      49.7876947671403
 5000.0      49.7874094137045
 5100.0      49.7993821904212
 5200.0      49.7817839365739
 5300.0      49.8069192468661
 5400.0      49.7853150164552
 5500.0      49.8060817002938
 5600.0      49.7966842687958
 5700.0      49.8034135195123
 5800.0      49.7988582489180
 5900.0      49.8092533542898
 6000.0      49.7909873441283
# P = 5.000000 (GPa)
    1.0       1.0000000000000
  100.0      14.9536222011731
  200.0      33.6207496642253
  300.0      39.1427843808463
  400.0      43.6549898489620
  500.0      45.4440799895360
  600.0      46.7530696486536
  700.0      47.5011639693924
  800.0      48.0313196290981
  900.0      48.3943293646196
 1000.0      48.6609920885262
 1100.0      48.8598376639629
 1200.0      49.0127825195693
 1300.0      49.1323200495399
 1400.0      49.2280429215450
 1500.0      49.3052640817934
 1600.0      49.3691612487436
 1700.0      49.4214722581263
 1800.0      49.4665666052704
 1900.0      49.5035470999764
 2000.0      49.5364122821014
 2100.0      49.5635144388256
 2200.0      49.5880760835552
 2300.0      49.6092522651059
 2400.0      49.6270887424355
 2500.0      49.6438839678152
 2600.0      49.6584765705774
 2700.0      49.6713272802105
 2800.0      49.6823526624035
 2900.0      49.6937786544654
 3000.0      49.7021343821753
 3100.0      49.7113747141827
 3200.0      49.7184260831179
 3300.0      49.7259022728277
 3400.0      49.7327245264129
 3500.0      49.7379753808059
 3600.0      49.7433298504224
 3700.0      49.7489592534862
 3800.0      49.7527113990403
 3900.0      49.7579953420956
 4000.0      49.7611683733376
 4100.0      49.7647400518294
 4200.0      49.7693167450725
 4300.0      49.7708396390605
 4400.0      49.7751321340210
 4500.0      49.7770488222322
 4600.0      49.7802037269455
 4700.0      49.7836386333169
 4800.0      49.7836169512963
 4900.0      49.7872058232535
 5000.0      49.7869740891091
 5100.0      49.7986319332275
 5200.0      49.7816440519973
 5300.0      49.8060270830893
 5400.0      49.7851693737323
 5500.0      49.8052983150019
 5600.0      49.7962613214911
 5700.0      49.8028062784751
 5800.0      49.7983970104013
 5900.0      49.8086785583963
 6000.0      49.7902893441268
# P = 6.000000 (GPa)
    1.0       1.0000000000000
  100.0      14.9441904321241
  200.0      33.6067850777506
  300.0      39.1339824079850
  400.0      43.6482499276102
  500.0      45.4392819326120
  600.0      46.7492856296447
  700.0      47.4981393322015
  800.0      48.0287910186981
  900.0      48.3921683170929
 1000.0      48.6590984041011
 1100.0      48.8581468408093
 1200.0      49.0112457475211
 1300.0      49.1309122883547
 1400.0      49.2267341848663
 1500.0      49.3040502610753
 1600.0      49.3680175181581
 1700.0      49.4204122096293
 1800.0      49.4655502916310
 1900.0      49.5026053206262
 2000.0      49.5355035337641
 2100.0      49.5626708048556
 2200.0      49.5872654405779
 2300.0      49.6084775106074
 2400.0      49.6263745694038
 2500.0      49.6431915312770
 2600.0      49.6578205020662
 2700.0      49.6707017297059
 2800.0      49.6817710494874
 2900.0      49.6931907761567
 3000.0      49.7015987658439
 3100.0      49.7108346626479
 3200.0      49.7179182634506
 3300.0      49.7253959722796
 3400.0      49.7322182005694
 3500.0      49.7374946173934
 3600.0      49.7428532072459
 3700.0      49.7484816549044
 3800.0      49.7522465543904
 3900.0      49.7575160293888
 4000.0      49.7607060756078
 4100.0      49.7642928325849
 4200.0      49.7688243894285
 4300.0      49.7704068777699
 4400.0      49.7746634007999
 4500.0      49.7765933315709
 4600.0      49.7797389094956
 4700.0      49.7831506236069
 4800.0      49.7831761414512
 4900.0      49.7867449475160
 5000.0      49.7865649361494
 5100.0      49.7979238825465
 5200.0      49.7815167027059
 5300.0      49.8051860610452
 5400.0      49.7850372806551
 5500.0      49.8045624812150
 5600.0      49.7958675275887
 5700.0      49.8022390176768
 5800.0      49.7979684402841
 5900.0      49.8081434925382
 6000.0      49.7896388196687
# P = 7.000000 (GPa)
    1.0       1.0000000000000
  100.0      14.9358182540393
  200.0      33.5943984718453
  300.0      39.1261892223752
  400.0      43.6423031782145
  500.0      45.4350631591239
  600.0      46.7459708326479
  700.0      47.4954990721589
  800.0      48.0265911852690
  900.0      48.3902941127262
 1000.0      48.6574607871780
 1100.0      48.8566884640882
 1200.0      49.0099228180953
 1300.0      49.1296995729715
 1400.0      49.2256007000505
 1500.0      49.3029882829936
 1600.0      49.3670044834300
 1700.0      49.4194616653816
 1800.0      49.4646283601945
 1900.0      49.5017414067879
 2000.0      49.5346609103809
 2100.0      49.5618801738119
 2200.0      49.5864976594655
 2300.0      49.6077358434725
 2400.0      49.6256833218718
 2500.0      49.6425139047206
 2600.0      49.6571724761109
 2700.0      49.6700808199807
 2800.0      49.6811938247864
 2900.0      49.6926091296873
 3000.0      49.7010709286354
 3100.0      49.7103046426659
 3200.0      49.7174221032618
 3300.0      49.7249035382558
 3400.0      49.7317280719613
 3500.0      49.7370316117429
 3600.0      49.7423964625843
 3700.0      49.7480258349789
 3800.0      49.7518041720800
 3900.0      49.7570603025710
 4000.0      49.7602668791402
 4100.0      49.7638682323774
 4200.0      49.7683569234958
 4300.0      49.7699965470639
 4400.0      49.7742189742888
 4500.0      49.7761617910827
 4600.0      49.7792987768517
 4700.0      49.7826886786007
 4800.0      49.7827598657425
 4900.0      49.7863098855576
 5000.0      49.7861797992655
 5100.0      49.7972546003015
 5200.0      49.7814007231762
 5300.0      49.8043918983956
 5400.0      49.7849174355366
 5500.0      49.8038700484773
 5600.0      49.7955002113090
 5700.0      49.8017080894326
 5800.0      49.7975695003033
 5900.0      49.8076445575079
 6000.0      49.7890316296762
# P = 8.000000 (GPa)
    1.0       1.0000000000000
  100.0      14.9282845508102
  200.0      33.5832625984857
  300.0      39.1191985582112
  400.0      43.6369908586592
  500.0      45.4313103549296
  600.0      46.7430356281675
  700.0      47.4931714420034
  800.0      48.0246601095970
  900.0      48.3886554786938
 1000.0      48.6560343657000
 1100.0      48.8554225519249
 1200.0      49.0087781082896
 1300.0      49.1286532201369
 1400.0      49.2246252196298
 1500.0      49.3020754961046
 1600.0      49.3661318394343
 1700.0      49.4186366897499
 1800.0      49.4638190889397
 1900.0      49.5009733815036
 2000.0      49.5339027059062
 2100.0      49.5611604975537
 2200.0      49.5857910214346
 2300.0      49.6070458508033
 2400.0      49.6250333178213
 2500.0      49.6418698958991
 2600.0      49.6565498719121
 2700.0      49.6694775914962
 2800.0      49.6806270944468
 2900.0      49.6920337345335
 3000.0      49.7005475567386
 3100.0      49.7097800499763
 3200.0      49.7169328899727
 3300.0      49.7244199392027
 3400.0      49.7312487638401
 3500.0      49.7365809236013
 3600.0      49.7419539742283
 3700.0      49.7475863239638
 3800.0      49.7513798754278
 3900.0      49.7566251062395
 4000.0      49.7598489884476
 4100.0      49.7634649891263
 4200.0      49.7679130826878
 4300.0      49.7696074600652
 4400.0      49.7737975746861
 4500.0      49.7757529073210
 4600.0      49.7788819338251
 4700.0      49.7822511938743
 4800.0      49.7823663946232
 4900.0      49.7858986793638
 5000.0      49.7858167611800
 5100.0      49.7966210170742
 5200.0      49.7812950821709
 5300.0      49.8036407850840
 5400.0      49.7848086912650
 5500.0      49.8032173411097
 5600.0      49.7951570121552
 5700.0      49.8012102625876
 5800.0      49.7971974631264
 5900.0      49.8071784178502
 6000.0      49.7884637896665
# P = 9.000000 (GPa)
    1.0       1.0000000000000
  100.0      14.9213942843281
  200.0      33.5730889414818
  300.0      39.1128286624883
  400.0      43.6321731534768
  500.0      45.4279237576833
  600.0      46.7404011353664
  700.0      47.4910933229607
  800.0      48.0229450110739
  900.0      48.3872073443721
 1000.0      48.6547797125260
 1100.0      48.8543139898872
 1200.0      49.0077797926504
 1300.0      49.1277441084803
 1400.0      49.2237806122736
 1500.0      49.3012876206471
 1600.0      49.3653807390330
 1700.0      49.4179282510712
 1800.0      49.4631243114540
 1900.0      49.5003112396571
 2000.0      49.5332428775703
 2100.0      49.5605264325746
 2200.0      49.5851605156296
 2300.0      49.6064227966592
 2400.0      49.6244396221087
 2500.0      49.6412751811282
 2600.0      49.6559686788263
 2700.0      49.6689084278173
 2800.0      49.6800865675261
 2900.0      49.6914788571279
 3000.0      49.7000372072183
 3100.0      49.7092636264603
 3200.0      49.7164488203643
 3300.0      49.7239413594734
 3400.0      49.7307758370595
 3500.0      49.7361380580683
 3600.0      49.7415210013150
 3700.0      49.7471580722433
 3800.0      49.7509684703118
 3900.0      49.7562050196392
 4000.0      49.7594477194953
 4100.0      49.7630797337832
 4200.0      49.7674905393543
 4300.0      49.7692382431703
 4400.0      49.7733979625560
 4500.0      49.7753654570582
 4600.0      49.7784871112704
 4700.0      49.7818368404895
 4800.0      49.7819943963595
 4900.0      49.7855098621595
 5000.0      49.7854742728230
 5100.0      49.7960205531604
 5200.0      49.7811988587885
 5300.0      49.8029293220393
 5400.0      49.7847100334039
 5500.0      49.8026010918990
 5600.0      49.7948358407154
 5700.0      49.8007426795192
 5800.0      49.7968499245193
 5900.0      49.8067421292628
 6000.0      49.7879317392368
# P = 10.000000 (GPa)
    1.0       1.0000000000000
  100.0      14.9149754550792
  200.0      33.5636231810526
  300.0      39.1069194069220
  400.0      43.6277269294410
  500.0      45.4248155391704
  600.0      46.7379979320354
  700.0      47.4892091823930
  800.0      48.0213994679335
  900.0      48.3859100827443
 1000.0      48.6536621751424
 1100.0      48.8533319278975
 1200.0      49.0068999220705
 1300.0      49.1269466748764
 1400.0      49.2230430544830
 1500.0      49.3006023963255
 1600.0      49.3647299460831
 1700.0      49.4173164675060
 1800.0      49.4625261739049
 1900.0      49.4997427168863
 2000.0      49.5326773905504
 2100.0      49.5599823289842
 2200.0      49.5846160150743
 2300.0      49.6058788012754
 2400.0      49.6239145498818
 2500.0      49.6407425986556
 2600.0      49.6554420116422
 2700.0      49.6683867986210
 2800.0      49.6795857120938
 2900.0      49.6909591113096
 3000.0      49.6995539931289
 3100.0      49.7087692729750
 3200.0      49.7159802467966
 3300.0      49.7234730975045
 3400.0      49.7303094536496
 3500.0      49.7357002277413
 3600.0      49.7410936977614
 3700.0      49.7467369098687
 3800.0      49.7505656512831
 3900.0      49.7557953242838
 4000.0      49.7590582493128
 4100.0      49.7627076175293
 4200.0      49.7670841602827
 4300.0      49.7688852308503
 4400.0      49.7730174373409
 4500.0      49.7749977824708
 4600.0      49.7781130255406
