# T/K      Debye temperature
# V= 188.4475000000000
 100.000               517.7
 200.000               608.0
 300.000               632.7
 400.000               642.6
 500.000               648.1
 600.000               652.1
 700.000               655.3
 800.000               658.4
 900.000               661.5
1000.000               664.6
1100.000               668.0
1200.000               671.5
1300.000               675.2
1400.000               679.1
1500.000               683.3
1600.000               687.7
1700.000               692.3
1800.000               697.2
1900.000               702.2
2000.000               707.6
2100.000               713.1
2200.000               718.8
2300.000               724.8
2400.000               730.9
2500.000               737.3
2600.000               743.9
2700.000               750.6
2800.000               757.6
2900.000               764.7
3000.000               772.0
3100.000               779.5
3200.000               787.1
3300.000               795.0
3400.000               802.9
3500.000               811.1
3600.000               819.4
3700.000               827.8
3800.000               836.4
3900.000               845.1
4000.000               853.9
4100.000               862.9
4200.000               872.0
4300.000               881.2
4400.000               890.5
4500.000               900.0
4600.000               909.5
4700.000               919.2
4800.000               929.0
4900.000               938.8
5000.000               948.8
5100.000               958.9
5200.000               969.0
5300.000               979.3
5400.000               989.6

# V= 183.1165000000000
 100.000               531.1
 200.000               629.1
 300.000               656.3
 400.000               666.9
 500.000               672.3
 600.000               675.8
 700.000               678.4
 800.000               680.6
 900.000               682.6
1000.000               684.6
1100.000               686.7
1200.000               688.7
1300.000               690.9
1400.000               693.2
1500.000               695.6
1600.000               698.1
1700.000               700.7
1800.000               703.5
1900.000               706.4
2000.000               709.4
2100.000               712.6
2200.000               715.9
2300.000               719.3
2400.000               722.8
2500.000               726.5
2600.000               730.3
2700.000               734.2
2800.000               738.3
2900.000               742.4
3000.000               746.7
3100.000               751.1
3200.000               755.7
3300.000               760.3
3400.000               765.0
3500.000               769.9
3600.000               774.9
3700.000               779.9
3800.000               785.1
3900.000               790.4
4000.000               795.8
4100.000               801.2
4200.000               806.8
4300.000               812.5
4400.000               818.2
4500.000               824.1
4600.000               830.0
4700.000               836.0
4800.000               842.2
4900.000               848.3
5000.000               854.6
5100.000               861.0
5200.000               867.4
5300.000               873.9
5400.000               880.5
5500.000               887.1
5600.000               893.9
5700.000               900.7
5800.000               907.5
5900.000               914.4
6000.000               921.4

# V= 177.8865000000000
 100.000               545.3
 200.000               652.3
 300.000               682.4
 400.000               693.7
 500.000               699.0
 600.000               701.8
 700.000               703.4
 800.000               704.4
 900.000               705.1
1000.000               705.4
1100.000               705.6
1200.000               705.7
1300.000               705.7
1400.000               705.6
1500.000               705.5
1600.000               705.3
1700.000               705.1
1800.000               704.8
1900.000               704.5
2000.000               704.1
2100.000               703.7
2200.000               703.3
2300.000               702.9
2400.000               702.5
2500.000               702.0
2600.000               701.5
2700.000               700.9
2800.000               700.4
2900.000               699.8
3000.000               699.2
3100.000               698.5
3200.000               697.9
3300.000               697.2
3400.000               696.5
3500.000               695.8
3600.000               695.0
3700.000               694.3
3800.000               693.5
3900.000               692.7
4000.000               691.8
4100.000               691.0
4200.000               690.1
4300.000               689.2
4400.000               688.2
4500.000               687.3
4600.000               686.3
4700.000               685.3
4800.000               684.3
4900.000               683.2
5000.000               682.2
5100.000               681.1
5200.000               679.9
5300.000               678.8
5400.000               677.6
5500.000               676.4
5600.000               675.2
5700.000               674.0
5800.000               672.7
5900.000               671.4
6000.000               670.1

# V= 172.7240000000000
 100.000               558.5
 200.000               676.2
 300.000               711.6
 400.000               726.0
 500.000               734.0
 600.000               739.6
 700.000               744.3
 800.000               748.7
 900.000               753.0
1000.000               757.5
1100.000               762.2
1200.000               767.2
1300.000               772.4
1400.000               777.9
1500.000               783.8
1600.000               789.9
1700.000               796.4
1800.000               803.2
1900.000               810.3
2000.000               817.7
2100.000               825.4
2200.000               833.3
2300.000               841.6
2400.000               850.1
2500.000               858.9
2600.000               868.0
2700.000               877.3
2800.000               886.8
2900.000               896.6
3000.000               906.7
3100.000               916.9
3200.000               927.4
3300.000               938.0
3400.000               948.9
3500.000               959.9
3600.000               971.2
3700.000               982.6

# V= 167.6965000000000
 100.000               569.5
 200.000               696.8
 300.000               735.7
 400.000               750.7
 500.000               758.2
 600.000               762.7
 700.000               765.9
 800.000               768.3
 900.000               770.4
1000.000               772.4
1100.000               774.3
1200.000               776.1
1300.000               778.0
1400.000               780.0
1500.000               782.0
1600.000               784.1
1700.000               786.4
1800.000               788.7
1900.000               791.1
2000.000               793.6
2100.000               796.2
2200.000               798.9
2300.000               801.7
2400.000               804.6
2500.000               807.7
2600.000               810.8
2700.000               814.0
2800.000               817.4
2900.000               820.8
3000.000               824.4
3100.000               828.0
3200.000               831.8
3300.000               835.7
3400.000               839.6
3500.000               843.6
3600.000               847.8
3700.000               852.0
3800.000               856.4
3900.000               860.8
4000.000               865.3
4100.000               869.9
4200.000               874.6
4300.000               879.4
4400.000               884.2
4500.000               889.2
4600.000               894.2
4700.000               899.3
4800.000               904.5
4900.000               909.8
5000.000               915.1
5100.000               920.5
5200.000               926.0
5300.000               931.6
5400.000               937.2
5500.000               942.9
5600.000               948.7
5700.000               954.5
5800.000               960.5
5900.000               966.4
6000.000               972.5

# V= 162.7700000000000
 100.000               583.0
 200.000               723.0
 300.000               766.9
 400.000               783.8
 500.000               791.9
 600.000               796.6
 700.000               799.5
 800.000               801.7
 900.000               803.3
1000.000               804.7
1100.000               805.9
1200.000               807.0
1300.000               808.0
1400.000               809.1
1500.000               810.1
1600.000               811.2
1700.000               812.2
1800.000               813.4
1900.000               814.5
2000.000               815.7
2100.000               816.9
2200.000               818.1
2300.000               819.4
2400.000               820.8
2500.000               822.2
2600.000               823.6
2700.000               825.1
2800.000               826.6
2900.000               828.2
3000.000               829.8
3100.000               831.5
3200.000               833.2
3300.000               835.0
3400.000               836.8
3500.000               838.7
3600.000               840.6
3700.000               842.6
3800.000               844.6
3900.000               846.6
4000.000               848.7
4100.000               850.9
4200.000               853.1
4300.000               855.3
4400.000               857.6
4500.000               860.0
4600.000               862.3
4700.000               864.8
4800.000               867.3
4900.000               869.8
5000.000               872.3
5100.000               874.9
5200.000               877.6
5300.000               880.3
5400.000               883.0
5500.000               885.8
5600.000               888.6
5700.000               891.5
5800.000               894.4
5900.000               897.3
6000.000               900.3

# V= 153.2210000000000
 100.000               599.5
 200.000               765.5
 300.000               822.3
 400.000               844.4
 500.000               855.1
 600.000               861.3
 700.000               865.2
 800.000               868.1
 900.000               870.3
1000.000               872.1
1100.000               873.8
1200.000               875.3
1300.000               876.8
1400.000               878.2
1500.000               879.7
1600.000               881.2
1700.000               882.7
1800.000               884.2
1900.000               885.8
2000.000               887.5
2100.000               889.2
2200.000               891.0
2300.000               892.8
2400.000               894.7
2500.000               896.7
2600.000               898.7
2700.000               900.8
2800.000               903.0
2900.000               905.2
3000.000               907.5
3100.000               909.9
3200.000               912.3
3300.000               914.8
3400.000               917.4
3500.000               920.0
3600.000               922.7
3700.000               925.5
3800.000               928.3
3900.000               931.2
4000.000               934.2
4100.000               937.2
4200.000               940.3
4300.000               943.4
4400.000               946.6
4500.000               949.9
4600.000               953.2
4700.000               956.6
4800.000               960.1
4900.000               963.6
5000.000               967.2
5100.000               970.8
5200.000               974.5
5300.000               978.3
5400.000               982.1
5500.000               985.9
5600.000               989.8

# V= 144.0095000000000
 100.000               615.8
 200.000               807.9
 300.000               880.0
 400.000               907.8
 500.000               920.2
 600.000               926.1
 700.000               928.8
 800.000               929.6
 900.000               929.1
1000.000               927.7
1100.000               925.7
1200.000               923.1
1300.000               920.0
1400.000               916.4
1500.000               912.5
1600.000               908.1
1700.000               903.3
1800.000               898.2
1900.000               892.7
2000.000               886.8
2100.000               880.5
2200.000               873.9
2300.000               866.8
2400.000               859.4
2500.000               851.6
2600.000               843.3
2700.000               834.6
2800.000               825.5
2900.000               816.0
3000.000               806.0
3100.000               795.5
3200.000               784.5
3300.000               772.9
3400.000               760.9
3500.000               748.3
3600.000               735.0
3700.000               721.2
3800.000               706.7
3900.000               691.4
4000.000               675.5
4100.000               658.7
4200.000               641.0
4300.000               622.4
4400.000               602.7
4500.000               582.0
4600.000               559.9
4700.000               536.4
4800.000               511.3
4900.000               484.4
5000.000               455.2
5100.000               423.4
5200.000               388.2
5300.000               348.8
5400.000               303.4
5500.000               248.7
5600.000               176.4

# V= 135.2030000000000
 100.000               617.7
 200.000               842.0
 300.000               935.8
 400.000               973.8
2500.000               990.3
2600.000               987.5
2700.000               984.6
2800.000               981.5
2900.000               978.4
3000.000               975.0
3100.000               971.6
3200.000               968.0
3300.000               964.3
3400.000               960.4
3500.000               956.4
3600.000               952.3
3700.000               948.0
3800.000               943.6
3900.000               939.1
4000.000               934.4
4100.000               929.5
4200.000               924.6
4300.000               919.4
4400.000               914.1
4500.000               908.7
4600.000               903.1
4700.000               897.3
4800.000               891.3
4900.000               885.2
5000.000               879.0
5100.000               872.5
5200.000               865.9
5300.000               859.1
5400.000               852.1
5500.000               844.9
5600.000               837.5
5700.000               829.9
5800.000               822.1
5900.000               814.1
6000.000               805.9

# V= 126.7675000000000
 100.000               620.0
 200.000               874.4
4400.000               987.5
4500.000               981.5
4600.000               975.2
4700.000               968.8
4800.000               962.2
4900.000               955.4
5000.000               948.4
5100.000               941.3
5200.000               933.9
5300.000               926.3
5400.000               918.5
5500.000               910.5
5600.000               902.3
5700.000               893.8
5800.000               885.1
5900.000               876.2
6000.000               867.0

# V= 118.6695000000000
 100.000               615.1
 200.000               901.1

# V= 110.9430000000000
 100.000               605.4
 200.000               925.9

