# T (K)       E-ph (Ry.)
# V = 188.447500 (a.u.^3)
    5.0       0.0085895555229
  100.0       0.0091076735647
  200.0       0.0110729336838
  300.0       0.0138925679690
  400.0       0.0171206081057
  500.0       0.0205530621765
  600.0       0.0240985892606
  700.0       0.0277123080604
  800.0       0.0313700382365
  900.0       0.0350577227968
 1000.0       0.0387666734120
 1100.0       0.0424912465505
 1200.0       0.0462276238297
 1300.0       0.0499731324867
 1400.0       0.0537258472526
 1500.0       0.0574843469242
 1600.0       0.0612475599809
 1700.0       0.0650146635263
 1800.0       0.0687850152851
 1900.0       0.0725581067190
 2000.0       0.0763335300002
 2100.0       0.0801109542950
 2200.0       0.0838901084393
 2300.0       0.0876707680836
 2400.0       0.0914527460203
 2500.0       0.0952358848116
 2600.0       0.0990200511039
 2700.0       0.1028051311967
 2800.0       0.1065910275540
 2900.0       0.1103776560322
 3000.0       0.1141649436601
 3100.0       0.1179528268452
 3200.0       0.1217412499148
 3300.0       0.1255301639213
 3400.0       0.1293195256569
 3500.0       0.1331092968370
 3600.0       0.1368994434184
 3700.0       0.1406899350283
 3800.0       0.1444807444829
 3900.0       0.1482718473795
 4000.0       0.1520632217503
 4100.0       0.1558548477657
 4200.0       0.1596467074809
 4300.0       0.1634387846169
 4400.0       0.1672310643718
 4500.0       0.1710235332572
 4600.0       0.1748161789554
 4700.0       0.1786089901952
 4800.0       0.1824019566435
 4900.0       0.1861950688090
 5000.0       0.1899883179590
 5100.0       0.1937816960444
 5200.0       0.1975751956347
 5300.0       0.2013688098593
 5400.0       0.2051625323560
 5500.0       0.2089563572246
 5600.0       0.2127502789860
 5700.0       0.2165442925451
 5800.0       0.2203383931579
 5900.0       0.2241325764015
 6000.0       0.2279268381477
# V = 183.116500 (a.u.^3)
    5.0       0.0089421322534
  100.0       0.0094322709233
  200.0       0.0113310710789
  300.0       0.0140937956967
  400.0       0.0172833015587
  500.0       0.0206897653255
  600.0       0.0242171605278
  700.0       0.0278177948463
  800.0       0.0314658192118
  900.0       0.0351461512150
 1000.0       0.0388494461682
 1100.0       0.0425696240138
 1200.0       0.0463025660328
 1300.0       0.0500453866298
 1400.0       0.0537960057867
 1500.0       0.0575528872350
 1600.0       0.0613148721987
 1700.0       0.0650810704598
 1800.0       0.0688507869979
 1900.0       0.0726234713804
 2000.0       0.0763986820925
 2100.0       0.0801760609122
 2200.0       0.0839553141837
 2300.0       0.0877361989181
 2400.0       0.0915185123321
 2500.0       0.0953020838721
 2600.0       0.0990867690636
 2700.0       0.1028724447145
 2800.0       0.1066590051394
 2900.0       0.1104463591593
 3000.0       0.1142344276974
 3100.0       0.1180231418367
 3200.0       0.1218124412410
 3300.0       0.1256022728601
 3400.0       0.1293925898634
 3500.0       0.1331833507543
 3600.0       0.1369745186331
 3700.0       0.1407660605771
 3800.0       0.1445579471196
 3900.0       0.1483501518083
 4000.0       0.1521426508294
 4100.0       0.1559354226869
 4200.0       0.1597284479272
 4300.0       0.1635217089027
 4400.0       0.1673151895668
 4500.0       0.1711088752962
 4600.0       0.1749027527370
 4700.0       0.1786968096698
 4800.0       0.1824910348917
 4900.0       0.1862854181126
 5000.0       0.1900799498645
 5100.0       0.1938746214209
 5200.0       0.1976694247254
 5300.0       0.2014643523290
 5400.0       0.2052593973335
 5500.0       0.2090545533419
 5600.0       0.2128498144135
 5700.0       0.2166451750239
 5800.0       0.2204406300295
 5900.0       0.2242361746347
 6000.0       0.2280318043634
# V = 177.886500 (a.u.^3)
    5.0       0.0093392113499
  100.0       0.0098008969488
  200.0       0.0116294413748
  300.0       0.0143291560068
  400.0       0.0174751837109
  500.0       0.0208521701285
  600.0       0.0243590334860
  700.0       0.0279449398318
  800.0       0.0315821442180
  900.0       0.0352543883904
 1000.0       0.0389515706258
 1100.0       0.0426671054080
 1200.0       0.0463965252907
 1300.0       0.0501366970491
 1400.0       0.0538853603377
 1500.0       0.0576408446418
 1600.0       0.0614018892890
 1700.0       0.0651675253826
 1800.0       0.0689369962203
 1900.0       0.0727097023511
 2000.0       0.0764851628280
 2100.0       0.0802629873577
 2200.0       0.0840428559385
 2300.0       0.0878245037421
 2400.0       0.0916077097309
 2500.0       0.0953922879775
 2600.0       0.0991780809685
 2700.0       0.1029649543822
 2800.0       0.1067527929762
 2900.0       0.1105414973193
 3000.0       0.1143309811722
 3100.0       0.1181211693720
 3200.0       0.1219119961105
 3300.0       0.1257034035239
 3400.0       0.1294953405298
 3500.0       0.1332877618629
 3600.0       0.1370806272705
 3700.0       0.1408739008373
 3800.0       0.1446675504173
 3900.0       0.1484615471519
 4000.0       0.1522558650607
 4100.0       0.1560504806912
 4200.0       0.1598453728190
 4300.0       0.1636405221894
 4400.0       0.1674359112943
 4500.0       0.1712315241785
 4600.0       0.1750273462712
 4700.0       0.1788233642395
 4800.0       0.1826195658594
 4900.0       0.1864159399027
 5000.0       0.1902124760384
 5100.0       0.1940091647441
 5200.0       0.1978059972287
 5300.0       0.2016029653638
 5400.0       0.2054000616220
 5500.0       0.2091972790227
 5600.0       0.2129946110831
 5700.0       0.2167920517748
 5800.0       0.2205895954847
 5900.0       0.2243872369796
 6000.0       0.2281849713750
# V = 172.724000 (a.u.^3)
    5.0       0.0097125918263
  100.0       0.0101499852917
  200.0       0.0119108185077
  300.0       0.0145426015484
  400.0       0.0176373835850
  500.0       0.0209763568469
  600.0       0.0244539704154
  700.0       0.0280164131716
  800.0       0.0316340891894
  900.0       0.0352895734889
 1000.0       0.0389720056803
 1100.0       0.0426742903452
 1200.0       0.0463916066126
 1300.0       0.0501205694420
 1400.0       0.0538587346438
 1500.0       0.0576042945687
 1600.0       0.0613558842920
 1700.0       0.0651124543186
 1800.0       0.0688731846939
 1900.0       0.0726374256583
 2000.0       0.0764046557654
 2100.0       0.0801744517627
 2200.0       0.0839464665593
 2300.0       0.0877204128617
 2400.0       0.0914960508472
 2500.0       0.0952731787628
 2600.0       0.0990516256688
 2700.0       0.1028312457801
 2800.0       0.1066119140083
 2900.0       0.1103935224191
 3000.0       0.1141759773916
 3100.0       0.1179591973244
 3200.0       0.1217431107680
 3300.0       0.1255276548953
 3400.0       0.1293127742397
 3500.0       0.1330984196489
 3600.0       0.1368845474119
 3700.0       0.1406711185264
 3800.0       0.1444580980823
 3900.0       0.1482454547387
 4000.0       0.1520331602795
 4100.0       0.1558211892334
 4200.0       0.1596095185487
 4300.0       0.1633981273124
 4400.0       0.1671869965080
 4500.0       0.1709761088055
 4600.0       0.1747654483783
 4700.0       0.1785550007442
 4800.0       0.1823447526250
 4900.0       0.1861346918245
 5000.0       0.1899248071204
 5100.0       0.1937150881690
 5200.0       0.1975055254206
 5300.0       0.2012961100454
 5400.0       0.2050868338664
 5500.0       0.2088776893003
 5600.0       0.2126686693050
 5700.0       0.2164597673314
 5800.0       0.2202509772818
 5900.0       0.2240422934712
 6000.0       0.2278337105930
# V = 167.696500 (a.u.^3)
    5.0       0.0100939533533
  100.0       0.0105130579925
  200.0       0.0122174644083
  300.0       0.0147917037637
  400.0       0.0178448176138
  500.0       0.0211552113346
  600.0       0.0246130575905
  700.0       0.0281616021673
  800.0       0.0317693921756
  900.0       0.0354178224080
 1000.0       0.0390952610320
 1100.0       0.0427940923248
 1200.0       0.0465091338848
 1300.0       0.0502367426115
 1400.0       0.0539742856507
 1500.0       0.0577198144718
 1600.0       0.0614718569583
 1700.0       0.0652292806867
 1800.0       0.0689912005853
 1900.0       0.0727569150779
 2000.0       0.0765258609890
 2100.0       0.0802975810943
 2200.0       0.0840717003741
 2300.0       0.0878479083671
 2400.0       0.0916259458746
 2500.0       0.0954055948163
 2600.0       0.0991866703989
 2700.0       0.1029690150073
 2800.0       0.1067524933910
 2900.0       0.1105369888382
 3000.0       0.1143224001079
 3100.0       0.1181086389511
 3200.0       0.1218956280937
 3300.0       0.1256832995835
 3400.0       0.1294715934264
 3500.0       0.1332604564560
 3600.0       0.1370498413893
 3700.0       0.1408397060359
 3800.0       0.1446300126305
 3900.0       0.1484207272681
 4000.0       0.1522118194232
 4100.0       0.1560032615393
 4200.0       0.1597950286766
 4300.0       0.1635870982091
 4400.0       0.1673794495619
 4500.0       0.1711720639847
 4600.0       0.1749649243534
 4700.0       0.1787580149982
 4800.0       0.1825513215519
 4900.0       0.1863448308180
 5000.0       0.1901385306533
 5100.0       0.1939324098652
 5200.0       0.1977264581204
 5300.0       0.2015206658643
 5400.0       0.2053150242486
 5500.0       0.2091095250674
 5600.0       0.2129041607000
 5700.0       0.2166989240600
 5800.0       0.2204938085484
 5900.0       0.2242888080134
 6000.0       0.2280839167125
# V = 162.770000 (a.u.^3)
    5.0       0.0105614849297
  100.0       0.0109587598661
  200.0       0.0125937462032
  300.0       0.0150941210210
  400.0       0.0180916397341
  500.0       0.0213622992168
  600.0       0.0247912991085
  700.0       0.0283183210081
  800.0       0.0319096239385
  900.0       0.0355451345728
 1000.0       0.0392122557843
 1100.0       0.0429027182260
 1200.0       0.0466108840644
 1300.0       0.0503327844460
 1400.0       0.0540655479947
 1500.0       0.0578070478539
 1600.0       0.0615556760961
 1700.0       0.0653101951475
 1800.0       0.0690696373184
 1900.0       0.0728332352556
 2000.0       0.0766003727881
 2100.0       0.0803705495329
 2200.0       0.0841433549765
 2300.0       0.0879184492070
 2400.0       0.0916955483892
 2500.0       0.0954744136785
 2600.0       0.0992548426599
 2700.0       0.1030366626683
 2800.0       0.1068197255231
 2900.0       0.1106039033431
 3000.0       0.1143890851889
 3100.0       0.1181751743509
 3200.0       0.1219620861405
 3300.0       0.1257497460810
 3400.0       0.1295380884144
 3500.0       0.1333270548630
 3600.0       0.1371165935963
 3700.0       0.1409066583638
 3800.0       0.1446972077644
 3900.0       0.1484882046278
 4000.0       0.1522796154872
 4100.0       0.1560714101303
 4200.0       0.1598635612128
 4300.0       0.1636560439265
 4400.0       0.1674488357118
 4500.0       0.1712419160090
 4600.0       0.1750352660414
 4700.0       0.1788288686262
 4800.0       0.1826227080091
 4900.0       0.1864167697190
 5000.0       0.1902110404397
 5100.0       0.1940055078973
 5200.0       0.1978001607601
 5300.0       0.2015949885499
 5400.0       0.2053899815632
 5500.0       0.2091851308008
 5600.0       0.2129804279054
 5700.0       0.2167758651050
 5800.0       0.2205714351627
 5900.0       0.2243671313316
 6000.0       0.2281629473138
# V = 153.221000 (a.u.^3)
    5.0       0.0113726808660
  100.0       0.0117496440677
  200.0       0.0132870417279
  300.0       0.0156622917917
  400.0       0.0185576175623
  500.0       0.0217519996299
  600.0       0.0251239545179
  700.0       0.0286073482004
  800.0       0.0321644383084
  900.0       0.0357724917510
 1000.0       0.0394171254019
 1100.0       0.0430888438484
 1200.0       0.0467811467802
 1300.0       0.0504894441705
 1400.0       0.0542104074443
 1500.0       0.0579415665605
 1600.0       0.0616810514006
 1700.0       0.0654274208781
 1800.0       0.0691795470696
 1900.0       0.0729365348324
 2000.0       0.0766976648912
 2100.0       0.0804623527934
 2200.0       0.0842301188171
 2300.0       0.0880005655730
 2400.0       0.0917733611077
 2500.0       0.0955482259939
 2600.0       0.0993249233562
 2700.0       0.1031032510820
 2800.0       0.1068830356804
 2900.0       0.1106641273965
 3000.0       0.1144463962921
 3100.0       0.1182297290768
 3200.0       0.1220140265282
 3300.0       0.1257992013763
 3400.0       0.1295851765581
 3500.0       0.1333718837698
 3600.0       0.1371592622575
 3700.0       0.1409472578031
 3800.0       0.1447358218693
 3900.0       0.1485249108751
 4000.0       0.1523144855794
 4100.0       0.1561045105544
 4200.0       0.1598949537336
 4300.0       0.1636857860227
 4400.0       0.1674769809634
 4500.0       0.1712685144414
 4600.0       0.1750603644328
 4700.0       0.1788525107824
 4800.0       0.1826449350099
 4900.0       0.1864376201393
 5000.0       0.1902305505492
 5100.0       0.1940237118403
 5200.0       0.1978170907181
 5300.0       0.2016106748894
 5400.0       0.2054044529692
 5500.0       0.2091984143990
 5600.0       0.2129925493727
 5700.0       0.2167868487711
 5800.0       0.2205813041025
 5900.0       0.2243759074501
 6000.0       0.2281706514236
# V = 144.009500 (a.u.^3)
    5.0       0.0123148773037
  100.0       0.0126713154178
  200.0       0.0141183296508
  300.0       0.0163669512028
  400.0       0.0191533484978
  500.0       0.0222653835620
  600.0       0.0255763319754
  700.0       0.0290141767174
  800.0       0.0325368002744
  900.0       0.0361184467987
 1000.0       0.0397426564219
 1100.0       0.0433984866286
 1200.0       0.0470784085371
 1300.0       0.0507770857253
 1400.0       0.0544906371374
 1500.0       0.0582161762133
 1600.0       0.0619515135186
 1700.0       0.0656949594270
 1800.0       0.0694451898868
 1900.0       0.0732011530472
 2000.0       0.0769620029975
 2100.0       0.0807270518929
 2200.0       0.0844957347986
 2300.0       0.0882675834891
 2400.0       0.0920422066579
 2500.0       0.0958192747836
 2600.0       0.0995985084256
 2700.0       0.1033796690783
 2800.0       0.1071625519541
 2900.0       0.1109469802392
 3000.0       0.1147328004830
 3100.0       0.1185198788683
 3200.0       0.1223080981733
 3300.0       0.1260973552800
 3400.0       0.1298875591177
 3500.0       0.1336786289555
 3600.0       0.1374704929775
 3700.0       0.1412630870861
 3800.0       0.1450563538938
 3900.0       0.1488502418679
 4000.0       0.1526447046035
 4100.0       0.1564397002017
 4200.0       0.1602351907359
 4300.0       0.1640311417925
 4400.0       0.1678275220736
 4500.0       0.1716243030525
 4600.0       0.1754214586737
 4700.0       0.1792189650914
 4800.0       0.1830168004402
 4900.0       0.1868149446336
 5000.0       0.1906133791871
 5100.0       0.1944120870615
 5200.0       0.1982110525246
 5300.0       0.2020102610281
 5400.0       0.2058096990986
 5500.0       0.2096093542399
 5600.0       0.2134092148462
 5700.0       0.2172092701242
 5800.0       0.2210095100232
 5900.0       0.2248099251725
 6000.0       0.2286105068246
# V = 135.203000 (a.u.^3)
    5.0       0.0131621104586
  100.0       0.0135302153817
  200.0       0.0149251952668
  300.0       0.0170620811903
  400.0       0.0197377420413
  500.0       0.0227588454013
  600.0       0.0259978694704
  700.0       0.0293785660557
  800.0       0.0328550380979
  900.0       0.0363987127916
 1000.0       0.0399911131733
 1100.0       0.0436198545045
 1200.0       0.0472763648292
 1300.0       0.0509545413828
 1400.0       0.0546499306401
 1500.0       0.0583592114193
 1600.0       0.0620798592609
 1700.0       0.0658099226269
 1800.0       0.0695478700494
 1900.0       0.0732924834638
 2000.0       0.0770427823139
 2100.0       0.0807979685954
 2200.0       0.0845573864242
 2300.0       0.0883204918555
 2400.0       0.0920868300557
 2500.0       0.0958560178251
 2600.0       0.0996277300673
 2700.0       0.1034016892065
 2800.0       0.1071776568301
 2900.0       0.1109554270326
 3000.0       0.1147348210681
 3100.0       0.1185156830243
 3200.0       0.1222978762952
 3300.0       0.1260812806876
 3400.0       0.1298657900318
 3500.0       0.1336513101974
 3600.0       0.1374377574358
 3700.0       0.1412250569900
 3800.0       0.1450131419198
 3900.0       0.1488019521085
 4000.0       0.1525914334151
 4100.0       0.1563815369510
 4200.0       0.1601722184591
 4300.0       0.1639634377778
 4400.0       0.1677551583790
 4500.0       0.1715473469665
 4600.0       0.1753399731265
 4700.0       0.1791330090226
 4800.0       0.1829264291288
 4900.0       0.1867202099944
 5000.0       0.1905143300382
 5100.0       0.1943087693651
 5200.0       0.1981035096053
 5300.0       0.2018985337709
 5400.0       0.2056938261282
 5500.0       0.2094893720842
 5600.0       0.2132851580854
 5700.0       0.2170811715263
 5800.0       0.2208774006686
 5900.0       0.2246738345678
 6000.0       0.2284704630069
# V = 126.767500 (a.u.^3)
    5.0       0.0141250266942
  100.0       0.0145037371835
  200.0       0.0158518089953
  300.0       0.0178801421883
  400.0       0.0204406195229
  500.0       0.0233639702196
  600.0       0.0265246896609
  700.0       0.0298431030305
  800.0       0.0332695912121
  900.0       0.0367726064769
 1000.0       0.0403314617189
 1100.0       0.0439321556546
 1200.0       0.0475649291915
 1300.0       0.0512227978529
 1400.0       0.0549006441368
 1500.0       0.0585946396546
 1600.0       0.0623018670802
 1700.0       0.0660200665594
 1800.0       0.0697474616927
 1900.0       0.0734826376308
 2000.0       0.0772244540629
 2100.0       0.0809719820452
 2200.0       0.0847244574195
 2300.0       0.0884812459782
 2400.0       0.0922418170716
 2500.0       0.0960057233733
 2600.0       0.0997725851965
 2700.0       0.1035420782127
 2800.0       0.1073139237452
 2900.0       0.1110878810305
 3000.0       0.1148637409983
 3100.0       0.1186413212342
 3200.0       0.1224204618717
 3300.0       0.1262010222197
 3400.0       0.1299828779762
 3500.0       0.1337659189137
 3600.0       0.1375500469454
 3700.0       0.1413351745008
 3800.0       0.1451212231555
 3900.0       0.1489081224689
 4000.0       0.1526958089951
 4100.0       0.1564842254365
 4200.0       0.1602733199180
 4300.0       0.1640630453606
 4400.0       0.1678533589404
 4500.0       0.1716442216194
 4600.0       0.1754355977359
 4700.0       0.1792274546482
 4800.0       0.1830197624214
 4900.0       0.1868124935530
 5000.0       0.1906056227309
 5100.0       0.1943991266198
 5200.0       0.1981929836721
 5300.0       0.2019871739598
 5400.0       0.2057816790256
 5500.0       0.2095764817497
 5600.0       0.2133715662306
 5700.0       0.2171669176791
 5800.0       0.2209625223224
 5900.0       0.2247583673187
 6000.0       0.2285544406796
# V = 118.669500 (a.u.^3)
    5.0       0.0150685147951
  100.0       0.0154786695848
  200.0       0.0167995515207
  300.0       0.0187300831812
  400.0       0.0211726563077
  500.0       0.0239882880835
  600.0       0.0270580794279
  700.0       0.0303009537258
  800.0       0.0336643401602
  900.0       0.0371139700368
 1000.0       0.0406269982858
 1100.0       0.0441877846597
 1200.0       0.0477853367744
 1300.0       0.0514117385300
 1400.0       0.0550611621566
 1500.0       0.0587292316212
 1600.0       0.0624126023308
 1700.0       0.0661086771882
 1800.0       0.0698154106362
 1900.0       0.0735311707517
 2000.0       0.0772546404393
 2100.0       0.0809847454697
 2200.0       0.0847206012767
 2300.0       0.0884614730783
 2400.0       0.0922067456060
 2500.0       0.0959558998570
 2600.0       0.0997084950482
 2700.0       0.1034641544684
 2800.0       0.1072225542826
 2900.0       0.1109834145980
 3000.0       0.1147464922764
 3100.0       0.1185115751090
 3200.0       0.1222784770623
 3300.0       0.1260470343722
 3400.0       0.1298171023162
 3500.0       0.1335885525297
 3600.0       0.1373612707629
 3700.0       0.1411351549961
 3800.0       0.1449101138490
 3900.0       0.1486860652311
 4000.0       0.1524629351926
 4100.0       0.1562406569407
 4200.0       0.1600191699961
 4300.0       0.1637984194647
 4400.0       0.1675783554087
 4500.0       0.1713589323000
