#T (K)      V (a.u.^3)
# P= 0.000000 GPa
    0.0     164.3765426325319
  100.0     164.4039573803869
  200.0     164.5328912765581
  300.0     164.7539751215424
  400.0     165.0328815376877
  500.0     165.3463820270298
  600.0     165.6823889912415
  700.0     166.0345890005678
  800.0     166.3995230940560
  900.0     166.7752090451237
 1000.0     167.1604767356655
 1100.0     167.5546284025348
 1200.0     167.9572571103759
 1300.0     168.3681425222447
 1400.0     168.7871899218748
 1500.0     169.2143929664271
 1600.0     169.6498099142241
 1700.0     170.0935481323957
 1800.0     170.5457531474719
 1900.0     171.0066043062603
 2000.0     171.4763066071327
 2100.0     171.9550916843188
 2200.0     172.4432111612264
 2300.0     172.9409409057806
 2400.0     173.4485764790653
 2500.0     173.9664319436181
 2600.0     174.4948453666130
 2700.0     175.0341750776280
 2800.0     175.5848003291886
 2900.0     176.1471228272844
 3000.0     176.7215713361030
 3100.0     177.3085952422868
 3200.0     177.9086742286347
 3300.0     178.5223140726295
 3400.0     179.1500531728168
 3500.0     179.7924624117414
 3600.0     180.4501444608655
 3700.0     181.1237411011734
 3800.0     181.8139352861366
 3900.0     182.5214522624892
 4000.0     183.2470665574385
 4100.0     183.9916003899426
 4200.0     184.7559321319552
 4300.0     185.5410054061787
 4400.0     186.3478202312210
 4500.0     187.1774554346217
 4600.0     188.0310678362806
 4700.0     188.9098881343616
 4800.0     189.8151929022257
 4900.0     190.7482948920224
 5000.0     191.7105577883733
 5100.0     192.7034088290629
 5200.0     193.7283088004624
 5300.0     194.7867444917365
 5400.0     195.8803367043474
 5500.0     197.0106601963080
 5600.0     198.1793477115243
 5700.0     199.3883218753235
 5800.0     200.6391942463124
 5900.0     201.9339577764586
 6000.0     203.2744105996862
# P= 1.000000 GPa
    0.0     163.4797962426150
  100.0     163.5057755932157
  200.0     163.6284963218926
  300.0     163.8403790205471
  400.0     164.1086806380169
  500.0     164.4108025905481
  600.0     164.7348891837742
  700.0     165.0747208895566
  800.0     165.4268776900169
  900.0     165.7893932482053
 1000.0     166.1610999646998
 1100.0     166.5412969035347
 1200.0     166.9295683768744
 1300.0     167.3256836694669
 1400.0     167.7295341299391
 1500.0     168.1410990350053
 1600.0     168.5604192395888
 1700.0     168.9875846495198
 1800.0     169.4227206679546
 1900.0     169.8659859757752
 2000.0     170.3175630467437
 2100.0     170.7776592263107
 2200.0     171.2465012942986
 2300.0     171.7243370809028
 2400.0     172.2114335842973
 2500.0     172.7080741539604
 2600.0     173.2145633195735
 2700.0     173.7312246710214
 2800.0     174.2583999169490
 2900.0     174.7964504752277
 3000.0     175.3457622066633
 3100.0     175.9067390242489
 3200.0     176.4798110296042
 3300.0     177.0654315368297
 3400.0     177.6640821924730
 3500.0     178.2762730016081
 3600.0     178.9025412061494
 3700.0     179.5434580509205
 3800.0     180.1996304163312
 3900.0     180.8717011424456
 4000.0     181.5603556453339
 4100.0     182.2663198202036
 4200.0     182.9903673652502
 4300.0     183.7333276363004
 4400.0     184.4960771384864
 4500.0     185.2795595845477
 4600.0     186.0847823234682
 4700.0     186.9128261845113
 4800.0     187.7648515807008
 4900.0     188.6420950260231
 5000.0     189.5458484290441
 5100.0     190.4774556994885
 5200.0     191.4383191794639
 5300.0     192.4298328247562
 5400.0     193.4535361379742
 5500.0     194.5109204956361
 5600.0     195.6035804199573
 5700.0     196.7332426722442
 5800.0     197.9015287006005
 5900.0     199.1102702436729
 6000.0     200.3612322446752
# P= 2.000000 GPa
    0.0     162.6067084804943
  100.0     162.6313145640675
  200.0     162.7481369831964
  300.0     162.9512828939847
  400.0     163.2095092973324
  500.0     163.5008206405669
  600.0     163.8135847246856
  700.0     164.1416733513798
  800.0     164.4817051934718
  900.0     164.8317294994809
 1000.0     165.1905826222354
 1100.0     165.5575606070053
 1200.0     165.9322412567897
 1300.0     166.3143837036112
 1400.0     166.7038680858018
 1500.0     167.1006597300494
 1600.0     167.5047850990331
 1700.0     167.9163174406999
 1800.0     168.3353650633994
 1900.0     168.7620677074174
 2000.0     169.1965877807955
 2100.0     169.6391115372740
 2200.0     170.0898425563737
 2300.0     170.5490050871957
 2400.0     171.0168397578326
 2500.0     171.4936029608083
 2600.0     171.9795701601982
 2700.0     172.4750333448017
 2800.0     172.9803016083324
 2900.0     173.4957011277050
 3000.0     174.0215796467508
 3100.0     174.5583013250898
 3200.0     175.1062533282762
 3300.0     175.6658425801014
 3400.0     176.2375016077564
 3500.0     176.8216874650718
 3600.0     177.4188807673326
 3700.0     178.0295916652610
 3800.0     178.6543613608478
 3900.0     179.2937619352623
 4000.0     179.9484022803588
 4100.0     180.6189257622832
 4200.0     181.3060169566120
 4300.0     182.0104079118501
 4400.0     182.7328706080749
 4500.0     183.4742341761888
 4600.0     184.2353814077066
 4700.0     185.0172572837999
 4800.0     185.8208731519021
 4900.0     186.6473066734766
 5000.0     187.4977172642724
 5100.0     188.3733563378858
 5200.0     189.2755546055884
 5300.0     190.2056302018217
 5400.0     191.1650391773068
 5500.0     192.1551943875312
 5600.0     193.1776317383876
 5700.0     194.2339325879484
 5800.0     195.3256879637943
 5900.0     196.4545979215882
 6000.0     197.6223742874281
# P= 3.000000 GPa
    0.0     161.7561804157194
  100.0     161.7794714428273
  200.0     161.8906888184148
  300.0     162.0855303419713
  400.0     162.3341747079912
  500.0     162.6152039296558
  600.0     162.9172017768590
  700.0     163.2341284902787
  800.0     163.5626412714969
  900.0     163.9008047166844
 1000.0     164.2474601549582
 1100.0     164.6019011255595
 1200.0     164.9637001761687
 1300.0     165.3326074372393
 1400.0     165.7084931476150
 1500.0     166.0913101433579
 1600.0     166.4810721173380
 1700.0     166.8778372646407
 1800.0     167.2816989077451
 1900.0     167.6927792399067
 2000.0     168.1112236130138
 2100.0     168.5371983415382
 2200.0     168.9708875780790
 2300.0     169.4124932730056
 2400.0     169.8622335233112
 2500.0     170.3203405054350
 2600.0     170.7870633353204
 2700.0     171.2626671482657
 2800.0     171.7474310219847
 2900.0     172.2416506451046
 3000.0     172.7456403586306
 3100.0     173.2597286831491
 3200.0     173.7842653061179
 3300.0     174.3196170870106
 3400.0     174.8661729489924
 3500.0     175.4243438312122
 3600.0     175.9945612627959
 3700.0     176.5772821948036
 3800.0     177.1729908600488
 3900.0     177.7821981819502
 4000.0     178.4054471156819
 4100.0     179.0433100914033
 4200.0     179.6963951295229
 4300.0     180.3653511165886
 4400.0     181.0508607144568
 4500.0     181.7536558333230
 4600.0     182.4745137205617
 4700.0     183.2142643752837
 4800.0     183.9737940713058
 4900.0     184.7540442718611
 5000.0     185.5560259490351
 5100.0     186.3808256751407
 5200.0     187.2296227813273
 5300.0     188.1036335637127
 5400.0     189.0042303203121
 5500.0     189.9327512780064
 5600.0     190.8906600374022
 5700.0     191.8794292685805
 5800.0     192.9005910784592
 5900.0     193.9557367070620
 6000.0     195.0465099073931
# P= 4.000000 GPa
    0.0     160.9271853613543
  100.0     160.9492159400643
  200.0     161.0551017361923
  300.0     161.2420421584421
  400.0     161.4815644444432
  500.0     161.7528041722135
  600.0     162.0445539725427
  700.0     162.3508599449106
  800.0     162.6684172680885
  900.0     162.9953060684016
 1000.0     163.3303728357599
 1100.0     163.6729099407278
 1200.0     164.0224848796317
 1300.0     164.3788405950105
 1400.0     164.7418377634910
 1500.0     165.1114190028664
 1600.0     165.4875855121520
 1700.0     165.8703830547132
 1800.0     166.2598903970395
 1900.0     166.6562152557084
 2000.0     167.0594863118083
 2100.0     167.4698533806445
 2200.0     167.8874820203797
 2300.0     168.3125552159534
 2400.0     168.7452704220533
 2500.0     169.1858381089243
 2600.0     169.6344848255845
 2700.0     170.0914503418041
 2800.0     170.5569887507225
 2900.0     171.0313675966634
 3000.0     171.5148717413797
 3100.0     172.0077991950945
 3200.0     172.5104655257311
 3300.0     173.0232026953177
 3400.0     173.5463617760929
 3500.0     174.0803127006446
 3600.0     174.6254442220338
 3700.0     175.1821672468413
 3800.0     175.7509160932081
 3900.0     176.3321486022018
 4000.0     176.9263505850840
 4100.0     177.5340332868836
 4200.0     178.1557386024717
 4300.0     178.7920438374857
 4400.0     179.4435553950635
 4500.0     180.1109216554752
 4600.0     180.7948299983769
 4700.0     181.4960127722355
 4800.0     182.2152501504617
 4900.0     182.9533688423127
 5000.0     183.7112544822774
 5100.0     184.4898561854652
 5200.0     185.2902022701469
 5300.0     186.1133469313717
 5400.0     186.9604940649441
 5500.0     187.8328605730878
 5600.0     188.7318236876072
 5700.0     189.6587703602802
 5800.0     190.6151570871662
 5900.0     191.6024824969608
 6000.0     192.6223122839059
# P= 5.000000 GPa
    0.0     160.1187627702185
  100.0     160.1395841290362
  200.0     160.2403938298647
  300.0     160.4198097333280
  400.0     160.6506394297009
  500.0     160.9125495936556
  600.0     161.1945348180643
  700.0     161.4907247062413
  800.0     161.7978516992504
  900.0     162.1140116769317
 1000.0     162.4380565113254
 1100.0     162.7692782561026
 1200.0     163.1072399384404
 1300.0     163.4516784719767
 1400.0     163.8024458923409
 1500.0     164.1594755952813
 1600.0     164.5227577934180
 1700.0     164.8923268326624
 1800.0     165.2682487243280
 1900.0     165.6506176926919
 2000.0     166.0395479642224
 2100.0     166.4351740835152
 2200.0     166.8376452786008
 2300.0     167.2471274223282
 2400.0     167.6637992084864
 2500.0     168.0878524364807
 2600.0     168.5194923336537
 2700.0     168.9589376281918
 2800.0     169.4064185483879
 2900.0     169.8621787289777
 3000.0     170.3264767287173
 3100.0     170.7995827253223
 3200.0     171.2817834399862
 3300.0     171.7733789562476
 3400.0     172.2746871101364
 3500.0     172.7860425829108
 3600.0     173.3077957594930
 3700.0     173.8403172429874
 3800.0     174.3839982747363
 3900.0     174.9392499695728
 4000.0     175.5065084337397
 4100.0     176.0862317769975
 4200.0     176.6789048565893
 4300.0     177.2850428834901
 4400.0     177.9051864799330
 4500.0     178.5399124008351
 4600.0     179.1898309462055
 4700.0     179.8555909228714
 4800.0     180.5378820665036
 4900.0     181.2374335710259
 5000.0     181.9550249335192
 5100.0     182.6914893535769
 5200.0     183.4477275431414
 5300.0     184.2246597966925
 5400.0     185.0233352818163
 5500.0     185.8448097484391
 5600.0     186.6902811670676
 5700.0     187.5609935091752
 5800.0     188.4583050324979
 5900.0     189.3836311881662
 6000.0     190.3384545963746
# P= 6.000000 GPa
    0.0     159.3300127329951
  100.0     159.3496730679491
  200.0     159.4456456117545
  300.0     159.6178891144247
  400.0     159.8404278799633
  500.0     160.0934384479808
  600.0     160.3661107926874
  700.0     160.6526558722412
  800.0     160.9498425496204
  900.0     161.2557826851260
 1000.0     161.5693336855938
 1100.0     161.8897879878964
 1200.0     162.2167048758859
 1300.0     162.5498158139252
 1400.0     162.8889654791826
 1500.0     163.2340786084350
 1600.0     163.5851360695794
 1700.0     163.9421612447884
 1800.0     164.3052093842604
 1900.0     164.6743618368947
 2000.0     165.0497206006566
 2100.0     165.4314056084027
 2200.0     165.8195522428396
 2300.0     166.2143100929221
 2400.0     166.6158421215620
 2500.0     167.0243222224491
 2600.0     167.4399377766142
 2700.0     167.8628873444491
 2800.0     168.2933810749835
 2900.0     168.7316405860425
 3000.0     169.1779010086822
 3100.0     169.6324085314498
 3200.0     170.0954230024836
 3300.0     170.5672175577514
 3400.0     171.0480800715057
 3500.0     171.5383136787239
 3600.0     172.0382359494424
 3700.0     172.5481813112047
 3800.0     173.0685031918569
 3900.0     173.5995723702100
 4000.0     174.1417809747643
 4100.0     174.6955409379848
 4200.0     175.2612874220337
 4300.0     175.8394820095832
 4400.0     176.4306080175691
 4500.0     177.0351804095241
 4600.0     177.6537431092201
 4700.0     178.2868732182578
 4800.0     178.9351828046632
 4900.0     179.5993177825615
 5000.0     180.2799672275933
 5100.0     180.9778659356587
 5200.0     181.6938063747012
 5300.0     182.4285960041811
 5400.0     183.1831537593015
 5500.0     183.9584009898763
 5600.0     184.7553809951299
 5700.0     185.5751740730388
 5800.0     186.4189555020583
 5900.0     187.2879786775481
 6000.0     188.1836100241575
# P= 7.000000 GPa
    0.0     158.5600910532002
  100.0     158.5786357385610
  200.0     158.6699948868612
  300.0     158.8353957151075
  400.0     159.0500196195038
  500.0     159.2945331217161
  600.0     159.5583151868837
  700.0     159.8356561117230
  800.0     160.1233604330128
  900.0     160.4195559915691
 1000.0     160.7231060633946
 1100.0     161.0333037965734
 1200.0     161.3497056196278
 1300.0     161.6720379447855
 1400.0     162.0001392286430
 1500.0     162.3339261248958
 1600.0     162.6733713167555
 1700.0     163.0184882082733
 1800.0     163.3693222910446
 1900.0     163.7259434730807
 2000.0     164.0884423569271
 2100.0     164.4569262220611
 2200.0     164.8315173373029
 2300.0     165.2123513669526
 2400.0     165.5995763560827
 2500.0     165.9933507784697
 2600.0     166.3938453601623
 2700.0     166.8012411918048
 2800.0     167.2157300997376
 2900.0     167.6375139457311
 3000.0     168.0668074933442
 3100.0     168.5038344650576
 3200.0     168.9488323054705
 3300.0     169.4020487432600
 3400.0     169.8637459711219
 3500.0     170.3341991767008
 3600.0     170.8136961000815
 3700.0     171.3025404222884
 3800.0     171.8010514638637
 3900.0     172.3095644567264
 4000.0     172.8284336698404
 4100.0     173.3580300109328
 4200.0     173.8987453002929
 4300.0     174.4509944506751
 4400.0     175.0152110195593
 4500.0     175.5918562352791
 4600.0     176.1814164888249
 4700.0     176.7844069449066
 4800.0     177.4013730063541
 4900.0     178.0328887762356
 5000.0     178.6795659507761
 5100.0     179.3420552360874
 5200.0     180.0210568452595
 5300.0     180.7172825781608
 5400.0     181.4315409033044
 5500.0     182.1646399999111
 5600.0     182.9174931690672
 5700.0     183.6910433337632
 5800.0     184.4863133637777
 5900.0     185.3043913550422
 6000.0     186.1464580928220
# P= 8.000000 GPa
    0.0     157.8082049012658
  100.0     157.8256767073026
  200.0     157.9126322475288
  300.0     158.0714995194754
  400.0     158.2785611150295
  500.0     158.5149547790393
  600.0     158.7702425352004
  700.0     159.0387919053353
  800.0     159.3174424429261
  900.0     159.6043378697475
 1000.0     159.8983476385172
 1100.0     160.1987659313954
 1200.0     160.5051469428556
 1300.0     160.8172126589452
 1400.0     161.1347959919719
 1500.0     161.4578064132592
 1600.0     161.7862090359842
 1700.0     162.1200085661185
 1800.0     162.4592412411977
 1900.0     162.8039671282646
 2000.0     163.1542659516355
 2100.0     163.5102341221805
 2200.0     163.8719815627151
 2300.0     164.2396318286308
 2400.0     164.6133189691136
 2500.0     164.9931882323509
 2600.0     165.3793946733924
 2700.0     165.7721043833134
 2800.0     166.1714919506368
 2900.0     166.5777424933052
 3000.0     166.9910513563402
 3100.0     167.4116236649842
 3200.0     167.8396752004801
 3300.0     168.2754325216394
 3400.0     168.7191340672812
 3500.0     169.1710302808503
 3600.0     169.6313832011500
 3700.0     170.1004680190632
 3800.0     170.5785750881343
 3900.0     171.0660078013820
 4000.0     171.5630867012727
 4100.0     172.0701474121194
 4200.0     172.5875432314445
 4300.0     173.1156481395774
 4400.0     173.6548526624717
 4500.0     174.2055708417435
 4600.0     174.7682391396490
 4700.0     175.3433189538023
 4800.0     175.9312979682912
 4900.0     176.5326883713743
 5000.0     177.1480351288430
 5100.0     177.7779166894703
 5200.0     178.4229543111576
 5300.0     179.0837781421508
 5400.0     179.7611024671418
 5500.0     180.4556394516313
 5600.0     181.1681924432628
 5700.0     181.8995883913375
 5800.0     182.6507222003331
 5900.0     183.4225433882426
 6000.0     184.2160793833215
# P= 9.000000 GPa
    0.0     157.0736087484358
  100.0     157.0900480124490
  200.0     157.1727968915811
  300.0     157.3254207458005
  400.0     157.5252509997310
  500.0     157.7538788562017
  600.0     158.0010436608633
  700.0     158.2611883306735
  800.0     158.5311866348643
  900.0     158.8091980890831
 1000.0     159.0940985844760
 1100.0     159.3851836361201
 1200.0     159.6820057573227
 1300.0     159.9842830123772
 1400.0     160.2918433505908
 1500.0     160.6045899286669
 1600.0     160.9224808507013
 1700.0     161.2455131250201
 1800.0     161.5737144058418
 1900.0     161.9071360206503
 2000.0     162.2458477647026
 2100.0     162.5899361189917
 2200.0     162.9395000723701
 2300.0     163.2946518010384
 2400.0     163.6555133860258
 2500.0     164.0222172216525
 2600.0     164.3949052303809
 2700.0     164.7737290018869
 2800.0     165.1588486237275
 2900.0     165.5504330955810
 3000.0     165.9486614287251
 3100.0     166.3537209888096
 3200.0     166.7658092487881
 3300.0     167.1851329952607
 3400.0     167.6119098213837
 3500.0     168.0463684040071
 3600.0     168.4887469912239
 3700.0     168.9392968187219
 3800.0     169.3982812247677
 3900.0     169.8659762497091
 4000.0     170.3426725744364
 4100.0     170.8286740952590
 4200.0     171.3243010500572
 4300.0     171.8298908895228
 4400.0     172.3457962317381
 4500.0     172.8723905181067
 4600.0     173.4100660826892
 4700.0     173.9592374642494
 4800.0     174.5203423185116
 4900.0     175.0938391787442
 5000.0     175.6802151141404
 5100.0     176.2799862607847
 5200.0     176.8937058373190
 5300.0     177.5219340856858
 5400.0     178.1653043406737
 5500.0     178.8244470465720
 5600.0     179.5000718146744
 5700.0     180.1929071986931
 5800.0     180.9037399599098
 5900.0     181.6334026384255
 6000.0     182.3827939247429
# P= 10.000000 GPa
    0.0     156.3556007129861
  100.0     156.3710455750289
  200.0     156.4497728930383
  300.0     156.5964259564270
  400.0     156.7893358900967
  500.0     157.0105305458218
  600.0     157.2499212186998
  700.0     157.5020242675147
  800.0     157.7637470885017
  900.0     158.0332647572916
 1000.0     158.3094598573608
 1100.0     158.5916295362024
 1200.0     158.8793249458886
 1300.0     159.1722608632701
 1400.0     159.4702608119751
 1500.0     159.7732222186021
 1600.0     160.0810968077841
 1700.0     160.3938747223962
 1800.0     160.7115757798078
 1900.0     161.0342433019556
 2000.0     161.3619382318818
 2100.0     161.6947377931348
 2200.0     162.0327313587816
 2300.0     162.3760204851257
 2400.0     162.7247166602362
 2500.0     163.0789404623602
 2600.0     163.4388221680471
 2700.0     163.8045000046639
 2800.0     164.1761211058999
 2900.0     164.5538399912276
 3000.0     164.9378210398762
 3100.0     165.3282354256111
 3200.0     165.7252644565744
 3300.0     166.1290968551282
 3400.0     166.5399321355623
 3500.0     166.9579786309345
 3600.0     167.3834546331925
 3700.0     167.8165885137186
 3800.0     168.2576210697021
 3900.0     168.7068029696174
 4000.0     169.1643987183314
 4100.0     169.6306846633443
 4200.0     170.1059507591648
 4300.0     170.5905033399984
 4400.0     171.0846611907287
 4500.0     171.5887616125605
 4600.0     172.1031591370347
 4700.0     172.6282268769764
 4800.0     173.1643584952190
