# T (K)      Entropy-ph (J K^-1 mol^-1)
# V = 57.968300 (a.u.^3)
    5.0       1.2020379616818
   50.0      66.9650585261980
  100.0     100.5389248954096
  150.0     120.5764916116849
  200.0     134.8613287679370
  250.0     145.9623271262271
  300.0     155.0409593200154
  350.0     162.7209064077557
  400.0     169.3757802243988
  450.0     175.2470877196581
  500.0     180.4999600891977
  550.0     185.2522929809619
  600.0     189.5911969828817
  650.0     193.5828592301411
  700.0     197.2787484890610
  750.0     200.7196785123620
  800.0     203.9385595506002
  850.0     206.9623154696364
  900.0     209.8132527714005
  950.0     212.5100593998168
 1000.0     215.0685473132325
 1050.0     217.5022138593181
 1100.0     219.8226725440672
 1150.0     222.0399880386348
 1200.0     224.1629398838800
 1250.0     226.1992323608843
 1300.0     228.1556631985827
 1350.0     230.0382604413765
 1400.0     231.8523944256223
 1450.0     233.6028701066703
 1500.0     235.2940037339499
 1550.0     236.9296869538858
 1600.0     238.5134407358878
 1650.0     240.0484610005832
 1700.0     241.5376574367795
 1750.0     242.9836866919137
 1800.0     244.3889808871166
 1850.0     245.7557722255831
 1900.0     247.0861143193947
 1950.0     248.3819007462970
 2000.0     249.6448812572436
 2050.0     250.8766759827903
 2100.0     252.0787879276964
 2150.0     253.2526139954265
 2200.0     254.3994547453557
 2250.0     255.5205230535470
 2300.0     256.6169518217309
 2350.0     257.6898008572762
 2400.0     258.7400630289090
 2450.0     259.7686697877678
 2500.0     260.7764961307397
 2550.0     261.7643650723358
 2600.0     262.7330516823861
 2650.0     263.6832867391520
 2700.0     264.6157600410246
 2750.0     265.5311234143628
 2800.0     266.4299934503475
 2850.0     267.3129539996186
 2900.0     268.1805584499854
 2950.0     269.0333318094352
 3000.0     269.8717726141035
 3050.0     270.6963546785466
 3100.0     271.5075287037129
 3150.0     272.3057237562676
 3200.0     273.0913486314319
 3250.0     273.8647931101667
 3300.0     274.6264291203959
 3350.0     275.3766118109004
 3400.0     276.1156805456741
 3450.0     276.8439598256916
 3500.0     277.5617601443525
 3550.0     278.2693787822747
 3600.0     278.9671005464766
 3650.0     279.6551984586030
 3700.0     280.3339343963238
 3750.0     281.0035596916791
 3800.0     281.6643156898047
 3850.0     282.3164342711358
 3900.0     282.9601383399213
 3950.0     283.5956422816155
 4000.0     284.2231523915124
 4050.0     284.8428672767410
 4100.0     285.4549782336190
 4150.0     286.0596696021126
 4200.0     286.6571190990890
 4250.0     287.2474981318386
 4300.0     287.8309720932671
 4350.0     288.4077006400215
 4400.0     288.9778379547275
 4450.0     289.5415329934028
 4500.0     290.0989297190542
 4550.0     290.6501673223689
 4600.0     291.1953804303405
 4650.0     291.7346993036284
 4700.0     292.2682500233444
 4750.0     292.7961546679796
 4800.0     293.3185314810479
 4850.0     293.8354950300533
 4900.0     294.3471563573062
 4950.0     294.8536231230769
 5000.0     295.3549997415580
# V = 57.225900 (a.u.^3)
    5.0       1.1428394441722
   50.0      66.2402829392100
  100.0      99.7831024096969
  150.0     119.8146828207051
  200.0     134.0974065740186
  250.0     145.1974235049151
  300.0     154.2755217191254
  350.0     161.9551465411589
  400.0     168.6098110767672
  450.0     174.4809750357288
  500.0     179.7337447075970
  550.0     184.4860016001367
  600.0     188.8248477900689
  650.0     192.8164650409830
  700.0     196.5123185935161
  750.0     199.9532198086631
  800.0     203.1720772681450
  850.0     206.1958136447192
  900.0     209.0467345690202
  950.0     211.7435273366861
 1000.0     214.3020034156430
 1050.0     216.7356597770227
 1100.0     219.0561096338456
 1150.0     221.2734174265549
 1200.0     223.3963625123294
 1250.0     225.4326490245434
 1300.0     227.3890745722786
 1350.0     229.2716671018479
 1400.0     231.0857968687157
 1450.0     232.8362687610412
 1500.0     234.5273989720675
 1550.0     236.1630791009517
 1600.0     237.7468300770952
 1650.0     239.2818477870918
 1700.0     240.7710418906417
 1750.0     242.2170690101713
 1800.0     243.6223612452296
 1850.0     244.9891507803005
 1900.0     246.3194912111870
 1950.0     247.6152761014153
 2000.0     248.8782551894749
 2050.0     250.1100485949551
 2100.0     251.3121593129434
 2150.0     252.4859842383415
 2200.0     253.6328239229205
 2250.0     254.7538912359823
 2300.0     255.8503190732158
 2350.0     256.9231672365876
 2400.0     257.9734285899771
 2450.0     259.0020345801667
 2500.0     260.0098602001161
 2550.0     260.9977284607933
 2600.0     261.9664144288203
 2650.0     262.9166488795512
 2700.0     263.8491216087382
 2750.0     264.7644844403346
 2800.0     265.6633539633310
 2850.0     266.5463140263714
 2900.0     267.4139180154316
 2950.0     268.2666909368244
 3000.0     269.1051313251497
 3050.0     269.9297129935513
 3100.0     270.7408866416803
 3150.0     271.5390813350018
 3200.0     272.3247058676346
 3250.0     273.0981500195208
 3300.0     273.8597857176398
 3350.0     274.6099681099004
 3400.0     275.3490365594846
 3450.0     276.0773155666166
 3500.0     276.7951156240022
 3550.0     277.5027340116051
 3600.0     278.2004555358399
 3650.0     278.8885532177904
 3700.0     279.5672889345987
 3750.0     280.2369140178155
 3800.0     280.8976698121176
 3850.0     281.5497881975108
 3900.0     282.1934920778423
 3950.0     282.8289958381912
 4000.0     283.4565057734958
 4050.0     284.0762204905563
 4100.0     284.6883312853767
 4150.0     285.2930224976329
 4200.0     285.8904718439150
 4250.0     286.4808507312548
 4300.0     287.0643245523134
 4350.0     287.6410529635086
 4400.0     288.2111901472466
 4450.0     288.7748850593392
 4500.0     289.3322816626037
 4550.0     289.8835191475401
 4600.0     290.4287321409726
 4650.0     290.9680509033902
 4700.0     291.5016015157562
 4750.0     292.0295060564090
 4800.0     292.5518827687251
 4850.0     293.0688462200770
 4900.0     293.5805074526475
 4950.0     294.0869741265899
 5000.0     294.5883506559793
# V = 56.483600 (a.u.^3)
    5.0       1.0876414671928
   50.0      65.5421567819399
  100.0      99.0542299995311
  150.0     119.0798749376040
  200.0     133.3605026846834
  250.0     144.4595461695126
  300.0     153.5371147206983
  350.0     161.2164198732666
  400.0     167.8708768102686
  450.0     173.7418983851894
  500.0     178.9945661829825
  550.0     183.7467476853350
  600.0     188.0855365263131
  650.0     192.0771091411113
  700.0     195.7729272730176
  750.0     199.2137999104949
  800.0     202.4326339798231
  850.0     205.4563509702176
  900.0     208.3072556480039
  950.0     211.0040346657303
 1000.0     213.5624990048224
 1050.0     215.9961452628948
 1100.0     218.3165863623393
 1150.0     220.5338865147324
 1200.0     222.6568248950390
 1250.0     224.6931054901171
 1300.0     226.6495257901450
 1350.0     228.5321136441357
 1400.0     230.3462392273074
 1450.0     232.0967073611663
 1500.0     233.7878341832204
 1550.0     235.4235112457311
 1600.0     237.0072594384186
 1650.0     238.5422746141103
 1700.0     240.0314664036333
 1750.0     241.4774914046052
 1800.0     242.8827816951622
 1850.0     244.2495694412280
 1900.0     245.5799082224588
 1950.0     246.8756915882751
 2000.0     248.1386692647978
 2050.0     249.3704613607441
 2100.0     250.5725708616005
 2150.0     251.7463946537762
 2200.0     252.8932332815042
 2250.0     254.0142996073707
 2300.0     255.1107265210770
 2350.0     256.1835738192282
 2400.0     257.2338343608974
 2450.0     258.2624395885445
 2500.0     259.2702644912346
 2550.0     260.2581320764198
 2600.0     261.2268174075381
 2650.0     262.1770512570648
 2700.0     263.1095234181262
 2750.0     264.0248857122969
 2800.0     264.9237547263933
 2850.0     265.8067143070733
 2900.0     266.6743178385001
 2950.0     267.5270903253243
 3000.0     268.3655303006215
 3050.0     269.1901115761345
 3100.0     270.0012848502255
 3150.0     270.7994791871727
 3200.0     271.5851033800004
 3250.0     272.3585472076372
 3300.0     273.1201825961282
 3350.0     273.8703646925140
 3400.0     274.6094328591802
 3450.0     275.3377115955987
 3500.0     276.0555113937838
 3550.0     276.7631295330567
 3600.0     277.4608508192336
 3650.0     278.1489482728366
 3700.0     278.8276837704871
 3750.0     279.4973086432506
 3800.0     280.1580642353483
 3850.0     280.8101824263600
 3900.0     281.4538861197342
 3950.0     282.0893897001778
 4000.0     282.7168994622755
 4050.0     283.3366140125028
 4100.0     283.9487246465518
 4150.0     284.5534157038098
 4200.0     285.1508649005926
 4250.0     285.7412436436757
 4300.0     286.3247173254779
 4350.0     286.9014456021868
 4400.0     287.4715826559953
 4450.0     288.0352774425122
 4500.0     288.5926739243569
 4550.0     289.1439112918542
 4600.0     289.6891241716519
 4650.0     290.2284428240804
 4700.0     290.7619933299432
 4750.0     291.2898977674382
 4800.0     291.8122743798009
 4850.0     292.3292377342719
 4900.0     292.8408988729093
 4950.0     293.3473654557458
 5000.0     293.8487418967529
# V = 55.741300 (a.u.^3)
    5.0       1.0836010006174
   50.0      65.1001288479925
  100.0      98.5864578273681
  150.0     118.6071069009181
  200.0     132.8859684750247
  250.0     143.9841913465862
  300.0     153.0613132976537
  350.0     160.7403488785144
  400.0     167.3946307369904
  450.0     173.2655322251796
  500.0     178.5181140984932
  550.0     183.2702320115338
  600.0     187.6089724788715
  650.0     191.6005074421630
  700.0     195.2962956952007
  750.0     198.7371442255094
  800.0     201.9559585631658
  850.0     204.9796591991699
  900.0     207.8305501708576
  950.0     210.5273175883640
 1000.0     213.0857720227783
 1050.0     215.5194097566602
 1100.0     217.8398434672604
 1150.0     220.0571371731094
 1200.0     222.1800698954822
 1250.0     224.2163454976411
 1300.0     226.1727613694706
 1350.0     228.0553452779095
 1400.0     229.8694673304859
 1450.0     231.6199322924822
 1500.0     233.3110562543910
 1550.0     234.9467307289165
 1600.0     236.5304765723033
 1650.0     238.0654896088938
 1700.0     239.5546794451608
 1750.0     241.0007026577916
 1800.0     242.4059913068606
 1850.0     243.7727775426368
 1900.0     245.1031149311500
 1950.0     246.3988970099205
 2000.0     247.6618734946403
 2050.0     248.8936644848484
 2100.0     250.0957729579369
 2150.0     251.2695957931485
 2200.0     252.4164335283531
 2250.0     253.5374990204790
 2300.0     254.6339251541690
 2350.0     255.7067717215077
 2400.0     256.7570315775119
 2450.0     257.7856361609950
 2500.0     258.7934604577368
 2550.0     259.7813274722245
 2600.0     260.7500122652084
 2650.0     261.7002456067314
 2700.0     262.6327172877122
 2750.0     263.5480791277087
 2800.0     264.4469477117080
 2850.0     265.3299068846931
 2900.0     266.1975100292976
 2950.0     267.0502821487684
 3000.0     267.8887217748934
 3050.0     268.7133027182363
 3100.0     269.5244756760695
 3150.0     270.3226697116704
 3200.0     271.1082936171375
 3250.0     271.8817371705484
 3300.0     272.6433722971580
 3350.0     273.3935541432762
 3400.0     274.1326220706073
 3450.0     274.8609005779984
 3500.0     275.5787001568789
 3550.0     276.2863180860255
 3600.0     276.9840391707481
 3650.0     277.6721364310980
 3700.0     278.3508717432566
 3750.0     279.0204964378774
 3800.0     279.6812518587985
 3850.0     280.3333698852407
 3900.0     280.9770734203167
 3950.0     281.6125768484144
 4000.0     282.2400864638268
 4050.0     282.8598008727524
 4100.0     283.4719113706204
 4150.0     284.0766022965718
 4200.0     284.6740513666963
 4250.0     285.2644299875478
 4300.0     285.8479035513415
 4350.0     286.4246317140728
 4400.0     286.9947686577538
 4450.0     287.5584633378198
 4500.0     288.1158597167284
 4550.0     288.6670969846508
 4600.0     289.2123097680888
 4650.0     289.7516283272351
 4700.0     290.2851787427676
 4750.0     290.8130830927538
 4800.0     291.3354596203185
 4850.0     291.8524228925878
 4900.0     292.3640839515162
 4950.0     292.8705504570354
 5000.0     293.3719268230191
# V = 55.066500 (a.u.^3)
    5.0       1.0228533248482
   50.0      64.3897767459683
  100.0      97.8445536368073
  150.0     117.8591017028542
  200.0     132.1358080385708
  250.0     143.2330298173513
  300.0     152.3096070261156
  350.0     159.9883138244358
  400.0     166.6423821613185
  450.0     172.5131372010171
  500.0     177.7656142912078
  550.0     182.5176546607905
  600.0     186.8563361409551
  650.0     190.8478251929538
  700.0     194.5435770134107
  750.0     197.9843961495874
  800.0     201.2031864288421
  850.0     204.2268671248304
  900.0     207.0777413858895
  950.0     209.7744946606857
 1000.0     212.3329370199146
 1050.0     214.7665643619374
 1100.0     217.0869890650753
 1150.0     219.3042749124488
 1200.0     221.4272007379130
 1250.0     223.4634702540216
 1300.0     225.4198807283646
 1350.0     227.3024598277938
 1400.0     229.1165775773018
 1450.0     230.8670386736087
 1500.0     232.5581591498809
 1550.0     234.1938304705877
 1600.0     235.7775734511530
 1650.0     237.3125838811945
 1700.0     238.8017713374833
 1750.0     240.2477923711900
 1800.0     241.6530790203609
 1850.0     243.0198634161785
 1900.0     244.3501991080621
 1950.0     245.6459796190231
 2000.0     246.9089546520324
 2050.0     248.1407442954442
 2100.0     249.3428515167782
 2150.0     250.5166731865413
 2200.0     251.6635098348476
 2250.0     252.7845743117184
 2300.0     253.8809994956412
 2350.0     254.9538451731813
 2400.0     256.0041041944156
 2450.0     257.0327079937084
 2500.0     258.0405315528358
 2550.0     259.0283978726653
 2600.0     259.9970820106810
 2650.0     260.9473147339530
 2700.0     261.8797858307078
 2750.0     262.7951471180529
 2800.0     263.6940151787377
 2850.0     264.5769738557084
 2900.0     265.4445765297281
 2950.0     266.2973482023370
 3000.0     267.1357874037533
 3050.0     267.9603679431019
 3100.0     268.7715405163266
 3150.0     269.5697341854890
 3200.0     270.3553577415572
 3250.0     271.1288009615689
 3300.0     271.8904357698161
 3350.0     272.6406173117194
 3400.0     273.3796849481562
 3450.0     274.1079631772071
 3500.0     274.8257624895882
 3550.0     275.5333801634161
 3600.0     276.2311010033812
 3650.0     276.9191980289631
 3700.0     277.5979331158061
 3750.0     278.2675575940615
 3800.0     278.9283128071005
 3850.0     279.5804306337054
 3900.0     280.2241339765795
 3950.0     280.8596372197269
 4000.0     281.4871466570822
 4050.0     282.1068608944989
 4100.0     282.7189712270975
 4150.0     283.3236619937153
 4200.0     283.9211109101602
 4250.0     284.5114893827230
 4300.0     285.0949628033709
 4350.0     285.6716908278634
 4400.0     286.2418276379902
 4450.0     286.8055221889763
 4500.0     287.3629184430856
 4550.0     287.9141555902971
 4600.0     288.4593682569392
 4650.0     288.9986867030364
 4700.0     289.5322370091044
 4750.0     290.0601412530690
 4800.0     290.5825176779041
 4850.0     291.0994808506038
 4900.0     291.6111418129955
 4950.0     292.1176082248873
 5000.0     292.6189845000365
# V = 54.459100 (a.u.^3)
    5.0       0.9694639773674
   50.0      63.7263571606607
  100.0      97.1506354775250
  150.0     117.1592785665186
  200.0     131.4338983220112
  250.0     142.5301507942717
  300.0     151.6062005291451
  350.0     159.2845889577964
  400.0     165.9384505316470
  450.0     171.8090637565793
  500.0     177.0614393781501
  550.0     181.8134046566394
  600.0     186.1520290148531
  650.0     190.1434736071344
  700.0     193.8391901467845
  750.0     197.2799808180141
  800.0     200.4987477993305
  850.0     203.5224091855489
  900.0     206.3732672641227
  950.0     209.0700068431719
 1000.0     211.6284375088174
 1050.0     214.0620547873751
 1100.0     216.3824707676814
 1150.0     218.5997490048944
 1200.0     220.7226681513718
 1250.0     222.7589317737289
 1300.0     224.7153370211176
 1350.0     226.5979114634708
 1400.0     228.4120250458548
 1450.0     230.1624823985950
 1500.0     231.8535994993438
 1550.0     233.4892677658572
 1600.0     235.0730079740343
 1650.0     236.6080158798596
 1700.0     238.0972010313421
 1750.0     239.5432199549432
 1800.0     240.9485046673788
 1850.0     242.3152872813494
 1900.0     243.6456213301852
 1950.0     244.9414003228453
 2000.0     246.2043739499870
 2050.0     247.4361622891304
 2100.0     248.6382682982355
 2150.0     249.8120888393483
 2200.0     250.9589244350715
 2250.0     252.0799879287426
 2300.0     253.1764121928795
 2350.0     254.2492570087128
 2400.0     255.2995152215260
 2450.0     256.3281182613824
 2500.0     257.3359411061772
 2550.0     258.3238067532753
 2600.0     259.2924902569913
 2650.0     260.2427223815239
 2700.0     261.1751929124901
 2750.0     262.0905536646227
 2800.0     262.9894212185076
 2850.0     263.8723794151111
 2900.0     264.7399816333937
 2950.0     265.5927528732382
 3000.0     266.4311916633466
 3050.0     267.2557718114432
 3100.0     268.0669440121931
 3150.0     268.8651373264727
 3200.0     269.6507605441615
 3250.0     270.4242034412882
 3300.0     271.1858379412139
 3350.0     271.9360191884932
 3400.0     272.6750865432081
 3450.0     273.4033645026928
 3500.0     274.1211635569779
 3550.0     274.8287809835350
 3600.0     275.5265015864600
 3650.0     276.2145983846735
 3700.0     276.8933332533015
 3750.0     277.5629575220094
 3800.0     278.2237125337175
 3850.0     278.8758301667835
 3900.0     279.5195333235124
 3950.0     280.1550363875362
 4000.0     280.7825456524426
 4050.0     281.4022597237562
 4100.0     282.0143698962896
 4150.0     282.6190605085903
 4200.0     283.2165092761950
 4250.0     283.8068876051408
 4300.0     284.3903608871504
 4350.0     284.9670887777565
 4400.0     285.5372254585332
 4450.0     286.1009198845032
 4500.0     286.6583160177400
 4550.0     287.2095530480400
 4600.0     287.7547656015620
 4650.0     288.2940839381665
 4700.0     288.8276341382195
 4750.0     289.3555382794939
 4800.0     289.8779146048319
 4850.0     290.3948776810949
 4900.0     290.9065385499860
 4950.0     291.4130048711950
 5000.0     291.9143810583688
# V = 53.784300 (a.u.^3)
    5.0       0.9212137497332
   50.0      63.0883054470311
  100.0      96.4822070580895
  150.0     116.4849608666362
  200.0     130.7574989799471
  250.0     141.8527843315886
  300.0     150.9283077532405
  350.0     158.6063785028933
  400.0     165.2600337582494
  450.0     171.1305054714684
  500.0     176.3827798403157
  550.0     181.1346701869686
  600.0     185.4732375440770
  650.0     189.4646377705114
  700.0     193.1603191037225
  750.0     196.6010813699225
  800.0     199.8198251022812
  850.0     202.8434672192826
  900.0     205.6943091493248
  950.0     208.3910350613357
 1000.0     210.9494540578918
 1050.0     213.3830612940431
 1100.0     215.7034685697614
 1150.0     217.9207392127144
 1200.0     220.0436516941537
 1250.0     222.0799094350552
 1300.0     224.0363094663865
 1350.0     225.9188792613704
 1400.0     227.7329886853052
 1450.0     229.4834423022685
 1500.0     231.1745560345090
 1550.0     232.8102212531755
 1600.0     234.3939586947190
 1650.0     235.9289640815630
 1700.0     237.4181469330192
 1750.0     238.8641637508836
 1800.0     240.2694465305944
 1850.0     241.6362273664000
 1900.0     242.9665597755810
 1950.0     244.2623372530759
 2000.0     245.5253094772499
 2050.0     246.7570965148105
 2100.0     247.9592013141819
 2150.0     249.1330207289644
 2200.0     250.2798552742684
 2250.0     251.4009177867574
 2300.0     252.4973411329953
 2350.0     253.5701850888862
 2400.0     254.6204424949343
 2450.0     255.6490447769062
 2500.0     256.6568669088255
 2550.0     257.6447318845651
 2600.0     258.6134147552757
