# T (K)               Helmholtz Free Energy (Ry.)
# V=  57.9683000000000
    0.00      -0.1089799669787
   50.00      -0.1102463969494
  100.00      -0.1135040831088
  150.00      -0.1177393354341
  200.00      -0.1226165457037
  250.00      -0.1279718634891
  300.00      -0.1336977485918
  350.00      -0.1397553516752
  400.00      -0.1460785504266
  450.00      -0.1526436407821
  500.00      -0.1594182529467
  550.00      -0.1663137831473
  600.00      -0.1734525689021
  650.00      -0.1807497049233
  700.00      -0.1881932640926
  750.00      -0.1957717330845
  800.00      -0.2034778641533
  850.00      -0.2113027089797
  900.00      -0.2192407454674
  950.00      -0.2272830815163
 1000.00      -0.2354254389026
 1050.00      -0.2436627637182
 1100.00      -0.2519905863463
 1150.00      -0.2604048787389
 1200.00      -0.2689018975984
 1250.00      -0.2774779852491
 1300.00      -0.2861298984140
 1350.00      -0.2948551499136
 1400.00      -0.3037207157022
 1450.00      -0.3125850747074
 1500.00      -0.3215147272215
 1550.00      -0.3305077730284
 1600.00      -0.3395599132863
 1650.00      -0.3486728135534
 1700.00      -0.3578438000538
 1750.00      -0.3670691522583
 1800.00      -0.3763507679148
 1850.00      -0.3856840819428
 1900.00      -0.3950700264501
 1950.00      -0.4045039591138
 2000.00      -0.4139872477509
 2050.00      -0.4235183036584
 2100.00      -0.4330955801502
 2150.00      -0.4427181618734
 2200.00      -0.4523854301963
 2250.00      -0.4620957373312
 2300.00      -0.4718476462001
 2350.00      -0.4816427858328
 2400.00      -0.4914756128139
 2450.00      -0.5013493987665
 2500.00      -0.5112614087026
 2550.00      -0.5212123170317
 2600.00      -0.5311993054234
 2650.00      -0.5412233709376
 2700.00      -0.5512827608351
 2750.00      -0.5613783298916
 2800.00      -0.5715100615766
 2850.00      -0.5816728810546
 2900.00      -0.5918690152255
 2950.00      -0.6021005531980
 3000.00      -0.6123613260370
 3050.00      -0.6226555540108
 3100.00      -0.6329799032509
 3150.00      -0.6433351886126
 3200.00      -0.6537211295649
 3250.00      -0.6641361704035
 3300.00      -0.6745793867501
 3350.00      -0.6850545590396
 3400.00      -0.6955555666546
 3450.00      -0.7060866210559
 3500.00      -0.7166406638818
 3550.00      -0.7272248288070
 3600.00      -0.7378356981234
 3650.00      -0.7484044226099
 3700.00      -0.7590680259606
 3750.00      -0.7698266422925
 3800.00      -0.7805404930276
 3850.00      -0.7912801783045
 3900.00      -0.8020438825517
 3950.00      -0.8128325982289
 4000.00      -0.8236467702787
 4050.00      -0.8344817523934
 4100.00      -0.8453407355772
 4150.00      -0.8562226075688
 4200.00      -0.8671283951075
 4250.00      -0.8780572858695
 4300.00      -0.8890072942372
 4350.00      -0.8999136084545
 4400.00      -0.9109073468717
 4450.00      -0.9219237405251
 4500.00      -0.9329617275243
 4550.00      -0.9440203257573
 4600.00      -0.9551000098554
 4650.00      -0.9662009285097
 4700.00      -0.9773217637241
 4750.00      -0.9884619347111
 4800.00      -0.9996237670969
 4850.00      -1.0108144583497
 4900.00      -1.0220146629985
 4950.00      -1.0332332517925
 5000.00      -1.0444720658623
# V=  57.8933181818182
    0.00      -0.1061715303301
   50.00      -0.1074362666065
  100.00      -0.1106914548031
  150.00      -0.1149241160754
  200.00      -0.1197986897555
  250.00      -0.1251513717895
  300.00      -0.1308761685786
  350.00      -0.1369308487708
  400.00      -0.1432517928086
  450.00      -0.1498142195501
  500.00      -0.1565862889211
  550.00      -0.1634883358951
  600.00      -0.1706245298473
  650.00      -0.1779190764842
  700.00      -0.1853600394223
  750.00      -0.1929360450767
  800.00      -0.2006395812514
  850.00      -0.2084617804320
  900.00      -0.2163971100240
  950.00      -0.2244368538535
 1000.00      -0.2325766184449
 1050.00      -0.2408113546267
 1100.00      -0.2491365865378
 1150.00      -0.2575482874761
 1200.00      -0.2660427109790
 1250.00      -0.2746162091060
 1300.00      -0.2832655353716
 1350.00      -0.2919881937495
 1400.00      -0.3008420829414
 1450.00      -0.3097038457227
 1500.00      -0.3186308492732
 1550.00      -0.3276212162054
 1600.00      -0.3366709005608
 1650.00      -0.3457812019209
 1700.00      -0.3549495470660
 1750.00      -0.3641722668894
 1800.00      -0.3734513277876
 1850.00      -0.3827819936108
 1900.00      -0.3921653257208
 1950.00      -0.4015967303588
 2000.00      -0.4110774423895
 2050.00      -0.4206058919140
 2100.00      -0.4301805779752
 2150.00      -0.4398005736814
 2200.00      -0.4494652385663
 2250.00      -0.4591729764745
 2300.00      -0.4689223004846
 2350.00      -0.4787147092831
 2400.00      -0.4885450709447
 2450.00      -0.4984163033390
 2500.00      -0.5083257003264
 2550.00      -0.5182740109528
 2600.00      -0.5282584462002
 2650.00      -0.5382798006648
 2700.00      -0.5483367639252
 2750.00      -0.5584296657633
 2800.00      -0.5685587356344
 2850.00      -0.5787190446792
 2900.00      -0.5889126223768
 2950.00      -0.5991414881178
 3000.00      -0.6093997167142
 3050.00      -0.6196913222500
 3100.00      -0.6300131438248
 3150.00      -0.6403658219197
 3200.00      -0.6507491642850
 3250.00      -0.6611615498680
 3300.00      -0.6716021290504
 3350.00      -0.6820748653559
 3400.00      -0.6925733845025
 3450.00      -0.7031017040011
 3500.00      -0.7136533793266
 3550.00      -0.7242349926300
 3600.00      -0.7348433112777
 3650.00      -0.7454185055451
 3700.00      -0.7560795166014
 3750.00      -0.7668263919161
 3800.00      -0.7775377175706
 3850.00      -0.7882747115474
 3900.00      -0.7990359238009
 3950.00      -0.8098221279774
 4000.00      -0.8206335945291
 4050.00      -0.8314661307004
 4100.00      -0.8423226322260
 4150.00      -0.8532019688482
 4200.00      -0.8641052150320
 4250.00      -0.8750315169183
 4300.00      -0.8859790232181
 4350.00      -0.8968915166087
 4400.00      -0.9078828007570
 4450.00      -0.9188966103485
 4500.00      -0.9299319533495
 4550.00      -0.9409880236998
 4600.00      -0.9520651233604
 4650.00      -0.9631634020363
 4700.00      -0.9742816523864
 4750.00      -0.9854193046317
 4800.00      -0.9965784909872
 4850.00      -1.0077652654821
 4900.00      -1.0189629102439
 4950.00      -1.0301790574703
 5000.00      -1.0414153128506
# V=  57.8183363636364
    0.00      -0.1033506614914
   50.00      -0.1046137014286
  100.00      -0.1078663825360
  150.00      -0.1120964453717
  200.00      -0.1169683765620
  250.00      -0.1223184166180
  300.00      -0.1280420505304
  350.00      -0.1340938142387
  400.00      -0.1404124801349
  450.00      -0.1469722380442
  500.00      -0.1537417538378
  550.00      -0.1606499071861
  600.00      -0.1677835008225
  650.00      -0.1750754494236
  700.00      -0.1825138077980
  750.00      -0.1900873359550
  800.00      -0.1977882688446
  850.00      -0.2056078161108
  900.00      -0.2135404354481
  950.00      -0.2215775785453
 1000.00      -0.2297147418476
 1050.00      -0.2379468807081
 1100.00      -0.2462695133030
 1150.00      -0.2546786142330
 1200.00      -0.2631704340146
 1250.00      -0.2717413339725
 1300.00      -0.2803880645483
 1350.00      -0.2891081213237
 1400.00      -0.2979507264875
 1450.00      -0.3068098848933
 1500.00      -0.3157342335212
 1550.00      -0.3247219169108
 1600.00      -0.3337691307270
 1650.00      -0.3428768249293
 1700.00      -0.3520425223777
 1750.00      -0.3612626027779
 1800.00      -0.3705390989798
 1850.00      -0.3798671104145
 1900.00      -0.3892478226879
 1950.00      -0.3986766878344
 2000.00      -0.4081548140031
 2050.00      -0.4176806492054
 2100.00      -0.4272527361973
 2150.00      -0.4368701370656
 2200.00      -0.4465321905421
 2250.00      -0.4562373497623
 2300.00      -0.4659840799872
 2350.00      -0.4757737556547
 2400.00      -0.4856016378036
 2450.00      -0.4954703064925
 2500.00      -0.5053770828014
 2550.00      -0.5153227875339
 2600.00      -0.5253046592972
 2650.00      -0.5353232992177
 2700.00      -0.5453778201079
 2750.00      -0.5554680494643
 2800.00      -0.5655944523621
 2850.00      -0.5757522387638
 2900.00      -0.5859432497341
 2950.00      -0.5961694384854
 3000.00      -0.6064251119958
 3050.00      -0.6167140879626
 3100.00      -0.6270333704794
 3150.00      -0.6373834333764
 3200.00      -0.6477641689474
 3250.00      -0.6581738933673
 3300.00      -0.6686118284867
 3350.00      -0.6790821139861
 3400.00      -0.6895781315489
 3450.00      -0.7001037139938
 3500.00      -0.7106530030285
 3550.00      -0.7212320544009
 3600.00      -0.7318378120194
 3650.00      -0.7424190670005
 3700.00      -0.7530774772315
 3750.00      -0.7638130073754
 3800.00      -0.7745217964023
 3850.00      -0.7852560947982
 3900.00      -0.7960148021354
 3950.00      -0.8067984828583
 4000.00      -0.8176072405322
 4050.00      -0.8284373156853
 4100.00      -0.8392913221144
 4150.00      -0.8501681121629
 4200.00      -0.8610688062557
 4250.00      -0.8719925106605
 4300.00      -0.8829375023267
 4350.00      -0.8938557784889
 4400.00      -0.9048445937177
 4450.00      -0.9158558103454
 4500.00      -0.9268885030419
 4550.00      -0.9379420341682
 4600.00      -0.9490165404917
 4650.00      -0.9601121727781
 4700.00      -0.9712278294006
 4750.00      -0.9823629510320
 4800.00      -0.9935194852650
 4850.00      -1.0047023929117
 4900.00      -1.0158974678131
 4950.00      -1.0271111582439
 5000.00      -1.0383448449146
# V=  57.7433545454545
    0.00      -0.1005173095182
   50.00      -0.1017786504691
  100.00      -0.1050288154045
  150.00      -0.1092562724386
  200.00      -0.1141255552375
  250.00      -0.1194729470915
  300.00      -0.1251953444214
  350.00      -0.1312441978975
  400.00      -0.1375605624411
  450.00      -0.1441176462898
  500.00      -0.1508845977812
  550.00      -0.1577984521542
  600.00      -0.1649294369925
  650.00      -0.1722187789388
  700.00      -0.1796545244456
  750.00      -0.1872255610468
  800.00      -0.1949238822896
  850.00      -0.2027407713759
  900.00      -0.2106706770659
  950.00      -0.2187052109489
 1000.00      -0.2268397644982
 1050.00      -0.2350692973829
 1100.00      -0.2433893220945
 1150.00      -0.2517958144934
 1200.00      -0.2602850222182
 1250.00      -0.2688533153940
 1300.00      -0.2774974415237
 1350.00      -0.2862148882463
 1400.00      -0.2950465969700
 1450.00      -0.3039031428750
 1500.00      -0.3128248306201
 1550.00      -0.3218098257819
 1600.00      -0.3308545545294
 1650.00      -0.3399596333505
 1700.00      -0.3491226767640
 1750.00      -0.3583401107112
 1800.00      -0.3676140323276
 1850.00      -0.3769393831916
 1900.00      -0.3863174682064
 1950.00      -0.3957437824632
 2000.00      -0.4052193135542
 2050.00      -0.4147425265185
 2100.00      -0.4243120058344
 2150.00      -0.4339268030788
 2200.00      -0.4435862372006
 2250.00      -0.4532888083140
 2300.00      -0.4630329358630
 2350.00      -0.4728198760558
 2400.00      -0.4826452646005
 2450.00      -0.4925113594884
 2500.00      -0.5024155074095
 2550.00      -0.5123585980835
 2600.00      -0.5223378960765
 2650.00      -0.5323538179262
 2700.00      -0.5424058808344
 2750.00      -0.5524934324357
 2800.00      -0.5626171631900
 2850.00      -0.5727724148153
 2900.00      -0.5829608488568
 2950.00      -0.5931843558442
 3000.00      -0.6034374634848
 3050.00      -0.6137238027654
 3100.00      -0.6240405348978
 3150.00      -0.6343879746894
 3200.00      -0.6447660952858
 3250.00      -0.6551731526331
 3300.00      -0.6656084368007
 3350.00      -0.6760762567820
 3400.00      -0.6865697597342
 3450.00      -0.6970926029254
 3500.00      -0.7076394870380
 3550.00      -0.7182159662238
 3600.00      -0.7288191525064
 3650.00      -0.7394060641757
 3700.00      -0.7500618650819
 3750.00      -0.7607864408730
 3800.00      -0.7714926817940
 3850.00      -0.7822242803057
 3900.00      -0.7929804698902
 3950.00      -0.8037616152806
 4000.00      -0.8145676606635
 4050.00      -0.8253952598368
 4100.00      -0.8362467578234
 4150.00      -0.8471209901581
 4200.00      -0.8580191214823
 4250.00      -0.8689402198318
 4300.00      -0.8798826843803
 4350.00      -0.8908063517974
 4400.00      -0.9017926835636
 4450.00      -0.9128012983616
 4500.00      -0.9238313344505
 4550.00      -0.9348823150776
 4600.00      -0.9459542192000
 4650.00      -0.9570471986905
 4700.00      -0.9681602527576
 4750.00      -0.9792928319757
 4800.00      -0.9904467079945
 4850.00      -1.0016257980030
 4900.00      -1.0128182931198
 4950.00      -1.0240295116418
 5000.00      -1.0352606196323
# V=  57.6683727272727
    0.00      -0.0976714232330
   50.00      -0.0989310625488
  100.00      -0.1021787022743
  150.00      -0.1064035461603
  200.00      -0.1112701746655
  250.00      -0.1166149120962
  300.00      -0.1223360000088
  350.00      -0.1283819493468
  400.00      -0.1346959895477
  450.00      -0.1412503940971
  500.00      -0.1480147706215
  550.00      -0.1549339258016
  600.00      -0.1620622933911
  650.00      -0.1693490200968
  700.00      -0.1767821444615
  750.00      -0.1843506755515
  800.00      -0.1920463768160
  850.00      -0.1998606014596
  900.00      -0.2077877900762
  950.00      -0.2158197062944
 1000.00      -0.2239516416585
 1050.00      -0.2321785599466
 1100.00      -0.2404959682402
 1150.00      -0.2488998436174
 1200.00      -0.2573864309795
 1250.00      -0.2659521087934
 1300.00      -0.2745936217558
 1350.00      -0.2833084500066
 1400.00      -0.2921296448163
 1450.00      -0.3009835701221
 1500.00      -0.3099025910232
 1550.00      -0.3188848932543
 1600.00      -0.3279271225130
 1650.00      -0.3370295777574
 1700.00      -0.3461899608019
 1750.00      -0.3554047412784
 1800.00      -0.3646760784699
 1850.00      -0.3739987625824
 1900.00      -0.3833742129348
 1950.00      -0.3927979649723
 2000.00      -0.4022708918107
 2050.00      -0.4117914746454
 2100.00      -0.4213583377117
 2150.00      -0.4309705225811
 2200.00      -0.4406273294264
 2250.00      -0.4503273030577
 2300.00      -0.4600688190768
 2350.00      -0.4698530214037
 2400.00      -0.4796759023561
 2450.00      -0.4895394133996
 2500.00      -0.4994409252451
 2550.00      -0.5093813937236
 2600.00      -0.5193581077144
 2650.00      -0.5293713079340
 2700.00      -0.5394208973716
 2750.00      -0.5495057659345
 2800.00      -0.5596268193639
 2850.00      -0.5697795241582
 2900.00      -0.5799653711228
 2950.00      -0.5901861915557
 3000.00      -0.6004367226036
 3050.00      -0.6107204180944
 3100.00      -0.6210345885844
 3150.00      -0.6313793973870
 3200.00      -0.6417548948561
 3250.00      -0.6521592792191
 3300.00      -0.6625919055568
 3350.00      -0.6730572454204
 3400.00      -0.6835482208252
 3450.00      -0.6940683225131
 3500.00      -0.7046127832344
 3550.00      -0.7151866800321
 3600.00      -0.7257872847271
 3650.00      -0.7363794541834
 3700.00      -0.7470326372969
 3750.00      -0.7577466444435
 3800.00      -0.7684503258501
 3850.00      -0.7791792201518
 3900.00      -0.7899328792349
 3950.00      -0.8007114774891
 4000.00      -0.8115148071340
 4050.00      -0.8223399154806
 4100.00      -0.8331888917730
 4150.00      -0.8440605553194
 4200.00      -0.8549561132574
 4250.00      -0.8658745970105
 4300.00      -0.8768145220399
 4350.00      -0.8877431941597
 4400.00      -0.8987270280300
 4450.00      -0.9097330321688
 4500.00      -0.9207604053504
 4550.00      -0.9318088242709
 4600.00      -0.9428781173648
 4650.00      -0.9539684376579
 4700.00      -0.9650788803774
 4750.00      -0.9762089054570
 4800.00      -0.9873601171710
 4850.00      -0.9985354380405
 4900.00      -1.0097253434985
 4950.00      -1.0209340751155
 5000.00      -1.0321625945059
# V=  57.5933909090909
    0.00      -0.0948129512251
   50.00      -0.0960708862550
  100.00      -0.0993159917778
  150.00      -0.1035382151888
  200.00      -0.1084021834971
  250.00      -0.1137442602863
  300.00      -0.1194639668322
  350.00      -0.1255070179659
  400.00      -0.1318187110588
  450.00      -0.1383704310597
  500.00      -0.1451322220138
  550.00      -0.1520562829989
  600.00      -0.1591820249211
  650.00      -0.1664661278345
  700.00      -0.1738966228124
  750.00      -0.1814626345409
  800.00      -0.1891557075261
  850.00      -0.1969672614676
  900.00      -0.2048917295505
  950.00      -0.2129210196858
 1000.00      -0.2210503284641
 1050.00      -0.2292746235693
 1100.00      -0.2375894069436
 1150.00      -0.2459906568413
 1200.00      -0.2544746155651
 1250.00      -0.2630376694715
 1300.00      -0.2716765605808
 1350.00      -0.2803887619724
 1400.00      -0.2891998202509
 1450.00      -0.2980511168868
 1500.00      -0.3069674649819
 1550.00      -0.3159470695618
 1600.00      -0.3249867850224
 1650.00      -0.3340866085233
 1700.00      -0.3432443248686
 1750.00      -0.3524564448696
 1800.00      -0.3617251878473
 1850.00      -0.3710451990297
 1900.00      -0.3804180073339
 1950.00      -0.3898391858928
 2000.00      -0.3993094993454
 2050.00      -0.4088274441834
 2100.00      -0.4183916824599
 2150.00      -0.4280012462396
 2200.00      -0.4376554179116
 2250.00      -0.4473527847302
 2300.00      -0.4570916804025
 2350.00      -0.4668731424239
 2400.00      -0.4766935019017
 2450.00      -0.4865544191105
 2500.00      -0.4964532872144
 2550.00      -0.5063911253881
 2600.00      -0.5163652452008
 2650.00      -0.5263757201979
 2700.00      -0.5364228208018
 2750.00      -0.5465050010331
 2800.00      -0.5566233719451
 2850.00      -0.5667735179335
 2900.00      -0.5769567677277
 2950.00      -0.5871748967993
 3000.00      -0.5974228405937
 3050.00      -0.6077038852055
 3100.00      -0.6180154828643
 3150.00      -0.6283576528184
 3200.00      -0.6387305190358
 3250.00      -0.6491322245013
 3300.00      -0.6595621861418
 3350.00      -0.6700250314025
 3400.00      -0.6805134664146
 3450.00      -0.6910308242995
 3500.00      -0.7015728433249
 3550.00      -0.7121441475883
 3600.00      -0.7227421605001
 3650.00      -0.7333391940499
 3700.00      -0.7439897509352
 3750.00      -0.7546935699526
 3800.00      -0.7653946805078
 3850.00      -0.7761208662510
 3900.00      -0.7868719821732
 3950.00      -0.7976480215642
 4000.00      -0.8084486319899
 4050.00      -0.8192712347799
 4100.00      -0.8301176762223
 4150.00      -0.8409867599725
 4200.00      -0.8518797339677
 4250.00      -0.8627955946166
 4300.00      -0.8737329678103
 4350.00      -0.8846662631260
 4400.00      -0.8956475847784
 4450.00      -0.9066509694657
 4500.00      -0.9176756734443
 4550.00      -0.9287215195193
 4600.00      -0.9397881927945
 4650.00      -0.9508758474939
 4700.00      -0.9619836701106
 4750.00      -0.9731111294022
 4800.00      -0.9842596707217
 4850.00      -0.9954312702288
 4900.00      -1.0066185762050
 4950.00      -1.0178248060396
 5000.00      -1.0290507269620
# V=  57.5184090909091
    0.00      -0.0919418418485
   50.00      -0.0931980699401
  100.00      -0.0964406323139
  150.00      -0.1006602279427
  200.00      -0.1055215301504
  250.00      -0.1108609400830
  300.00      -0.1165791942129
  350.00      -0.1226193529135
  400.00      -0.1289286763614
  450.00      -0.1354777065543
  500.00      -0.1422369013974
  550.00      -0.1491654784851
  600.00      -0.1562885863545
  650.00      -0.1635700569585
  700.00      -0.1709979143357
  750.00      -0.1785613929592
  800.00      -0.1862518293956
  850.00      -0.1940607063790
  900.00      -0.2019824504332
  950.00      -0.2100091061002
 1000.00      -0.2181357799252
 1050.00      -0.2263574432964
 1100.00      -0.2346695932841
 1150.00      -0.2430682092778
 1200.00      -0.2515495311187
 1250.00      -0.2601099526066
 1300.00      -0.2687462132138
 1350.00      -0.2774557793915
 1400.00      -0.2862570732947
 1450.00      -0.2951057332182
 1500.00      -0.3040194025446
 1550.00      -0.3129963047350
