# T (K)       E-ph (Ry.)
# V = 157.405100 (a.u.^3)
    5.0       0.0018080044379
   50.0       0.0049985083964
  100.0       0.0096258627909
  150.0       0.0143343829407
  200.0       0.0190636531473
  250.0       0.0238012697592
  300.0       0.0285430691722
  350.0       0.0332872615838
  400.0       0.0380329506541
  450.0       0.0427796379364
  500.0       0.0475270241758
  550.0       0.0522749188551
  600.0       0.0570231949237
  650.0       0.0617717644034
  700.0       0.0665205644412
  750.0       0.0712695489390
  800.0       0.0760186833192
  850.0       0.0807679411379
  900.0       0.0855173018260
  950.0       0.0902667491439
 1000.0       0.0950162700991
 1050.0       0.0997658541735
 1100.0       0.1045154927610
 1150.0       0.1092651787522
 1200.0       0.1140149062221
 1250.0       0.1187646701938
 1300.0       0.1235144664560
 1350.0       0.1282642914211
 1400.0       0.1330141420141
 1450.0       0.1377640155839
 1500.0       0.1425139098332
 1550.0       0.1472638227606
 1600.0       0.1520137526154
 1650.0       0.1567636978587
 1700.0       0.1615136571328
 1750.0       0.1662636292350
 1800.0       0.1710136130965
 1850.0       0.1757636077639
 1900.0       0.1805136123840
 1950.0       0.1852636261913
 2000.0       0.1900136484968
 2050.0       0.1947636786787
 2100.0       0.1995137161744
 2150.0       0.2042637604736
 2200.0       0.2090138111126
 2250.0       0.2137638676686
 2300.0       0.2185139297558
 2350.0       0.2232639970212
 2400.0       0.2280140691410
 2450.0       0.2327641458182
 2500.0       0.2375142267792
 2550.0       0.2422643117721
 2600.0       0.2470144005643
 2650.0       0.2517644929407
 2700.0       0.2565145887023
 2750.0       0.2612646876643
 2800.0       0.2660147896553
 2850.0       0.2707648945160
 2900.0       0.2755150020978
 2950.0       0.2802651122624
 3000.0       0.2850152248807
 3050.0       0.2897653398320
 3100.0       0.2945154570035
 3150.0       0.2992655762893
 3200.0       0.3040156975904
 3250.0       0.3087658208139
 3300.0       0.3135159458722
 3350.0       0.3182660726832
 3400.0       0.3230162011697
 3450.0       0.3277663312588
 3500.0       0.3325164628817
 3550.0       0.3372665959737
 3600.0       0.3420167304736
 3650.0       0.3467668663235
 3700.0       0.3515170034687
 3750.0       0.3562671418574
 3800.0       0.3610172814405
 3850.0       0.3657674221714
 3900.0       0.3705175640060
 3950.0       0.3752677069025
 4000.0       0.3800178508209
 4050.0       0.3847679957234
 4100.0       0.3895181415741
 4150.0       0.3942682883386
 4200.0       0.3990184359843
 4250.0       0.4037685844801
 4300.0       0.4085187337964
 4350.0       0.4132688839049
 4400.0       0.4180190347785
 4450.0       0.4227691863916
 4500.0       0.4275193387193
 4550.0       0.4322694917382
 4600.0       0.4370196454257
 4650.0       0.4417697997603
 4700.0       0.4465199547213
 4750.0       0.4512701102889
 4800.0       0.4560202664442
 4850.0       0.4607704231689
 4900.0       0.4655205804458
 4950.0       0.4702707382579
 5000.0       0.4750208965894
# V = 155.178150 (a.u.^3)
    5.0       0.0018367868055
   50.0       0.0050067337538
  100.0       0.0096300682693
  150.0       0.0143371984106
  200.0       0.0190657678524
  250.0       0.0238029626564
  300.0       0.0285444804168
  350.0       0.0332884714641
  400.0       0.0380340094234
  450.0       0.0427805791282
  500.0       0.0475278712780
  550.0       0.0522756889576
  600.0       0.0570239008481
  650.0       0.0617724160148
  700.0       0.0665211694924
  750.0       0.0712701136331
  800.0       0.0760192126969
  850.0       0.0807684393507
  900.0       0.0855177723338
  950.0       0.0902671948605
 1000.0       0.0950166935013
 1050.0       0.0997662573845
 1100.0       0.1045158776146
 1150.0       0.1092655468429
 1200.0       0.1140152589452
 1250.0       0.1187650087773
 1300.0       0.1235147919861
 1350.0       0.1282646048633
 1400.0       0.1330144442306
 1450.0       0.1377643073477
 1500.0       0.1425141918399
 1550.0       0.1472640956387
 1600.0       0.1520140169343
 1650.0       0.1567639541360
 1700.0       0.1615139058406
 1750.0       0.1662638708050
 1800.0       0.1710138479242
 1850.0       0.1757638362127
 1900.0       0.1805138347889
 1950.0       0.1852638428614
 2000.0       0.1900138597179
 2050.0       0.1947638847158
 2100.0       0.1995139172737
 2150.0       0.2042639568639
 2200.0       0.2090140030072
 2250.0       0.2137640552666
 2300.0       0.2185141132432
 2350.0       0.2232641765722
 2400.0       0.2280142449191
 2450.0       0.2327643179765
 2500.0       0.2375143954620
 2550.0       0.2422644771150
 2600.0       0.2470145626951
 2650.0       0.2517646519800
 2700.0       0.2565147447640
 2750.0       0.2612648408560
 2800.0       0.2660149400790
 2850.0       0.2707650422682
 2900.0       0.2755151472701
 2950.0       0.2802652549417
 3000.0       0.2850153651495
 3050.0       0.2897654777688
 3100.0       0.2945155926830
 3150.0       0.2992657097827
 3200.0       0.3040158289654
 3250.0       0.3087659501352
 3300.0       0.3135160732015
 3350.0       0.3182661980796
 3400.0       0.3230163246895
 3450.0       0.3277664529558
 3500.0       0.3325165828077
 3550.0       0.3372667141781
 3600.0       0.3420168470037
 3650.0       0.3467669812247
 3700.0       0.3515171167847
 3750.0       0.3562672536299
 3800.0       0.3610173917097
 3850.0       0.3657675309759
 3900.0       0.3705176713831
 3950.0       0.3752678128877
 4000.0       0.3800179554487
 4050.0       0.3847680990269
 4100.0       0.3895182435852
 4150.0       0.3942683890880
 4200.0       0.3990185355018
 4250.0       0.4037686827942
 4300.0       0.4085188309347
 4350.0       0.4132689798941
 4400.0       0.4180191296443
 4450.0       0.4227692801588
 4500.0       0.4275194314120
 4550.0       0.4322695833797
 4600.0       0.4370197360385
 4650.0       0.4417698893661
 4700.0       0.4465200433412
 4750.0       0.4512701979434
 4800.0       0.4560203531529
 4850.0       0.4607705089512
 4900.0       0.4655206653200
 4950.0       0.4702708222423
 5000.0       0.4750209797012
# V = 153.052400 (a.u.^3)
    5.0       0.0018643961413
   50.0       0.0050147592292
  100.0       0.0096341748895
  150.0       0.0143399481130
  200.0       0.0190678332566
  250.0       0.0238046161111
  300.0       0.0285458587821
  350.0       0.0332896531481
  400.0       0.0380350435051
  450.0       0.0427814983585
  500.0       0.0475286985975
  550.0       0.0522764410580
  600.0       0.0570245902526
  650.0       0.0617730523589
  700.0       0.0665217603486
  750.0       0.0712706650601
  800.0       0.0760197296182
  850.0       0.0807689258213
  900.0       0.0855182317331
  950.0       0.0902676300346
 1000.0       0.0950171068696
 1050.0       0.0997666510208
 1100.0       0.1045162533099
 1150.0       0.1092659061548
 1200.0       0.1140156032365
 1250.0       0.1187653392474
 1300.0       0.1235151096960
 1350.0       0.1282649107563
 1400.0       0.1330147391487
 1450.0       0.1377645920459
 1500.0       0.1425144669977
 1550.0       0.1472643618699
 1600.0       0.1520142747950
 1650.0       0.1567642041321
 1700.0       0.1615141484330
 1750.0       0.1662641064153
 1800.0       0.1710140769388
 1850.0       0.1757640589868
 1900.0       0.1805140516495
 1950.0       0.1852640541103
 2000.0       0.1900140656345
 2050.0       0.1947640855589
 2100.0       0.1995141132835
 2150.0       0.2042641482642
 2200.0       0.2090141900062
 2250.0       0.2137642380588
 2300.0       0.2185142920104
 2350.0       0.2232643514845
 2400.0       0.2280144161360
 2450.0       0.2327644856479
 2500.0       0.2375145597285
 2550.0       0.2422646381092
 2600.0       0.2470147205418
 2650.0       0.2517648067971
 2700.0       0.2565148966626
 2750.0       0.2612649899414
 2800.0       0.2660150864507
 2850.0       0.2707651860204
 2900.0       0.2755152884923
 2950.0       0.2802653937188
 3000.0       0.2850155015622
 3050.0       0.2897656118937
 3100.0       0.2945157245930
 3150.0       0.2992658395473
 3200.0       0.3040159566510
 3250.0       0.3087660758048
 3300.0       0.3135161969155
 3350.0       0.3182663198955
 3400.0       0.3230164446624
 3450.0       0.3277665711384
 3500.0       0.3325166992503
 3550.0       0.3372668289291
 3600.0       0.3420169601093
 3650.0       0.3467670927294
 3700.0       0.3515172267308
 3750.0       0.3562673620585
 3800.0       0.3610174986599
 3850.0       0.3657676364856
 3900.0       0.3705177754884
 3950.0       0.3752679156236
 4000.0       0.3800180568487
 4050.0       0.3847681991235
 4100.0       0.3895183424094
 4150.0       0.3942684866699
 4200.0       0.3990186318703
 4250.0       0.4037687779773
 4300.0       0.4085189249593
 4350.0       0.4132690727862
 4400.0       0.4180192214292
 4450.0       0.4227693708607
 4500.0       0.4275195210544
 4550.0       0.4322696719853
 4600.0       0.4370198236293
 4650.0       0.4417699759634
 4700.0       0.4465201289655
 4750.0       0.4512702826147
 4800.0       0.4560204368905
 4850.0       0.4607705917738
 4900.0       0.4655207472458
 4950.0       0.4702709032887
 5000.0       0.4750210598855
# V = 151.027900 (a.u.^3)
    5.0       0.0018911748495
   50.0       0.0050226700135
  100.0       0.0096382260852
  150.0       0.0143426611181
  200.0       0.0190698711988
  250.0       0.0238062476133
  300.0       0.0285472188564
  350.0       0.0332908191508
  400.0       0.0380360638598
  450.0       0.0427824053797
  500.0       0.0475295149207
  550.0       0.0522771831532
  600.0       0.0570252704767
  650.0       0.0617736802197
  700.0       0.0665223433180
  750.0       0.0712712091168
  800.0       0.0760202396204
  850.0       0.0807694057702
  900.0       0.0855186849636
  950.0       0.0902680593550
 1000.0       0.0950175146672
 1050.0       0.0997670393419
 1100.0       0.1045166239220
 1150.0       0.1092662605946
 1200.0       0.1140159428492
 1250.0       0.1187656652163
 1300.0       0.1235154230681
 1350.0       0.1282652124622
 1400.0       0.1330150300194
 1450.0       0.1377648728265
 1500.0       0.1425147383587
 1550.0       0.1472646244170
 1600.0       0.1520145290771
 1650.0       0.1567644506481
 1700.0       0.1615143876379
 1750.0       0.1662643387250
 1800.0       0.1710143027347
 1850.0       0.1757642786193
 1900.0       0.1805142654412
 1950.0       0.1852642623593
 2000.0       0.1900142686163
 2050.0       0.1947642835289
 2100.0       0.1995143064789
 2150.0       0.2042643369056
 2200.0       0.2090143742992
 2250.0       0.2137644181952
 2300.0       0.2185144681696
 2350.0       0.2232645238345
 2400.0       0.2280145848341
 2450.0       0.2327646508419
 2500.0       0.2375147215574
 2550.0       0.2422647967037
 2600.0       0.2470148760252
 2650.0       0.2517649592855
 2700.0       0.2565150462658
 2750.0       0.2612651367632
 2800.0       0.2660152305893
 2850.0       0.2707653275689
 2900.0       0.2755154275389
 2950.0       0.2802655303473
 3000.0       0.2850156358521
 3050.0       0.2897657439207
 3100.0       0.2945158544291
 3150.0       0.2992659672611
 3200.0       0.3040160823078
 3250.0       0.3087661994669
 3300.0       0.3135163186425
 3350.0       0.3182664397442
 3400.0       0.3230165626871
 3450.0       0.3277666873911
 3500.0       0.3325168137808
 3550.0       0.3372669417849
 3600.0       0.3420170713362
 3650.0       0.3467672023711
 3700.0       0.3515173348294
 3750.0       0.3562674686541
 3800.0       0.3610176037915
 3850.0       0.3657677401903
 3900.0       0.3705178778019
 3950.0       0.3752680165805
 4000.0       0.3800181564821
 4050.0       0.3847682974652
 4100.0       0.3895184394902
 4150.0       0.3942685825195
 4200.0       0.3990187265172
 4250.0       0.4037688714492
 4300.0       0.4085190172827
 4350.0       0.4132691639868
 4400.0       0.4180193115318
 4450.0       0.4227694598893
 4500.0       0.4275196090322
 4550.0       0.4322697589347
 4600.0       0.4370199095720
 4650.0       0.4417700609203
 4700.0       0.4465202129570
 4750.0       0.4512703656604
 4800.0       0.4560205190096
 4850.0       0.4607706729846
 4900.0       0.4655208275663
 4950.0       0.4702709827362
 5000.0       0.4750211384769
# V = 149.070900 (a.u.^3)
    5.0       0.0019171523431
   50.0       0.0050304591259
  100.0       0.0096422180953
  150.0       0.0143453348931
  200.0       0.0190718797809
  250.0       0.0238078556521
  300.0       0.0285485593902
  350.0       0.0332919684121
  400.0       0.0380370695711
  450.0       0.0427832993886
  500.0       0.0475303195363
  550.0       0.0522779146083
  600.0       0.0570259409501
  650.0       0.0617742990826
  700.0       0.0665229179349
  750.0       0.0712717453803
  800.0       0.0760207423189
  850.0       0.0807698788476
  900.0       0.0855191317067
  950.0       0.0902684825318
 1000.0       0.0950179166308
 1050.0       0.0997674221093
 1100.0       0.1045169892351
 1150.0       0.1092666099684
 1200.0       0.1140162776091
 1250.0       0.1187659865289
 1300.0       0.1235157319654
 1350.0       0.1282655098615
 1400.0       0.1330153167398
 1450.0       0.1377651496022
 1500.0       0.1425150058507
 1550.0       0.1472648832222
 1600.0       0.1520147797365
 1650.0       0.1567646936536
 1700.0       0.1615146234379
 1750.0       0.1662645677296
 1800.0       0.1710145253196
 1850.0       0.1757644951299
 1900.0       0.1805144761957
 1950.0       0.1852644676513
 2000.0       0.1900144687174
 2050.0       0.1947644786908
 2100.0       0.1995144969354
 2150.0       0.2042645228742
 2200.0       0.2090145559824
 2250.0       0.2137645957823
 2300.0       0.2185146418373
 2350.0       0.2232646937483
 2400.0       0.2280147511492
 2450.0       0.2327648137040
 2500.0       0.2375148811034
 2550.0       0.2422649530624
 2600.0       0.2470150293180
 2650.0       0.2517651096270
 2700.0       0.2565151937643
 2750.0       0.2612652815209
 2800.0       0.2660153727031
 2850.0       0.2707654671305
 2900.0       0.2755155646353
 2950.0       0.2802656650610
 3000.0       0.2850157682615
 3050.0       0.2897658741005
 3100.0       0.2945159824501
 3150.0       0.2992660931910
 3200.0       0.3040162062109
 3250.0       0.3087663214048
 3300.0       0.3135164386737
 3350.0       0.3182665579248
 3400.0       0.3230166790707
 3450.0       0.3277668020288
 3500.0       0.3325169267217
 3550.0       0.3372670530760
 3600.0       0.3420171810224
 3650.0       0.3467673104956
 3700.0       0.3515174414336
 3750.0       0.3562675737778
 3800.0       0.3610177074728
 3850.0       0.3657678424659
 3900.0       0.3705179787072
 3950.0       0.3752681161492
 4000.0       0.3800182547470
 4050.0       0.3847683944578
 4100.0       0.3895185352408
 4150.0       0.3942686770573
 4200.0       0.3990188198703
 4250.0       0.4037689636448
 4300.0       0.4085191083471
 4350.0       0.4132692539453
 4400.0       0.4180194004088
 4450.0       0.4227695477084
 4500.0       0.4275196958163
 4550.0       0.4322698447059
 4600.0       0.4370199943516
 4650.0       0.4417701447291
 4700.0       0.4465202958150
 4750.0       0.4512704475869
 4800.0       0.4560206000234
 4850.0       0.4607707531040
 4900.0       0.4655209068089
 4950.0       0.4702710611192
 5000.0       0.4750212160167
# V = 147.248850 (a.u.^3)
    5.0       0.0019424664931
   50.0       0.0050381505540
  100.0       0.0096461629614
  150.0       0.0143479774728
  200.0       0.0190738650315
  250.0       0.0238094450518
  300.0       0.0285498844051
  350.0       0.0332931043801
  400.0       0.0380380636570
  450.0       0.0427841830690
  500.0       0.0475311148607
  550.0       0.0522786376208
  600.0       0.0570266036885
  650.0       0.0617749108091
  700.0       0.0665234859288
  750.0       0.0712722754659
  800.0       0.0760212392290
  850.0       0.0807703464806
  900.0       0.0855195733112
  950.0       0.0902689008440
 1000.0       0.0950183139764
 1050.0       0.0997678004819
 1100.0       0.1045173503566
 1150.0       0.1092669553362
 1200.0       0.1140166085334
 1250.0       0.1187663041627
 1300.0       0.1235160373287
 1350.0       0.1282658038611
 1400.0       0.1330156001851
 1450.0       0.1377654232192
 1500.0       0.1425152702927
 1550.0       0.1472651390791
 1600.0       0.1520150275432
 1650.0       0.1567649338962
 1700.0       0.1615148565597
 1750.0       0.1662647941357
 1800.0       0.1710147453817
 1850.0       0.1757647091892
 1900.0       0.1805146845668
 1950.0       0.1852646706243
 2000.0       0.1900146665608
 2050.0       0.1947646716535
 2100.0       0.1995146852485
 2150.0       0.2042647067525
 2200.0       0.2090147356264
 2250.0       0.2137647713787
 2300.0       0.2185148135610
 2350.0       0.2232648617629
 2400.0       0.2280149156080
 2450.0       0.2327649747510
 2500.0       0.2375150388739
 2550.0       0.2422651076839
 2600.0       0.2470151809105
 2650.0       0.2517652583037
 2700.0       0.2565153396321
 2750.0       0.2612654246811
 2800.0       0.2660155132512
 2850.0       0.2707656051572
 2900.0       0.2755157002266
 2950.0       0.2802657982985
 3000.0       0.2850158992228
 3050.0       0.2897660028591
 3100.0       0.2945161090764
 3150.0       0.2992662177516
 3200.0       0.3040163287696
 3250.0       0.3087664420222
 3300.0       0.3135165574079
 3350.0       0.3182666748312
 3400.0       0.3230167942021
 3450.0       0.3277669154360
 3500.0       0.3325170384530
 3550.0       0.3372671631779
 3600.0       0.3420172895394
 3650.0       0.3467674174702
 3700.0       0.3515175469069
 3750.0       0.3562676777890
 3800.0       0.3610178100597
 3850.0       0.3657679436647
 3900.0       0.3705180785528
 3950.0       0.3752682146752
 4000.0       0.3800183519856
 4050.0       0.3847684904401
 4100.0       0.3895186299968
 4150.0       0.3942687706158
 4200.0       0.3990189122593
 4250.0       0.4037690548909
 4300.0       0.4085191984764
 4350.0       0.4132693429828
 4400.0       0.4180194883787
 4450.0       0.4227696346341
 4500.0       0.4275197817203
 4550.0       0.4322699296100
 4600.0       0.4370200782771
 4650.0       0.4417702276963
 4700.0       0.4465203778437
 4750.0       0.4512705286963
 4800.0       0.4560206802320
 4850.0       0.4607708324298
 4900.0       0.4655209852694
 4950.0       0.4702711387313
 5000.0       0.4750212927968
# V = 145.494250 (a.u.^3)
    5.0       0.0019671900262
   50.0       0.0050457574456
  100.0       0.0096500672983
  150.0       0.0143505932713
  200.0       0.0190758302611
  250.0       0.0238110184600
  300.0       0.0285511961061
  350.0       0.0332942289434
  400.0       0.0380390477684
  450.0       0.0427850578868
  500.0       0.0475319022116
  550.0       0.0522793533872
  600.0       0.0570272597867
  650.0       0.0617755164084
  700.0       0.0665240482350
  750.0       0.0712728002448
  800.0       0.0760217311661
  850.0       0.0807708094348
  900.0       0.0855200104987
  950.0       0.0902693149733
 1000.0       0.0950187073500
 1050.0       0.0997681750734
 1100.0       0.1045177078706
 1150.0       0.1092672972550
 1200.0       0.1140169361541
 1250.0       0.1187666186268
 1300.0       0.1235163396459
 1350.0       0.1282660949290
 1400.0       0.1330158808053
 1450.0       0.1377656941102
 1500.0       0.1425155321011
 1550.0       0.1472653923892
 1600.0       0.1520152728844
 1650.0       0.1567651717496
 1700.0       0.1615150873642
 1750.0       0.1662650182925
 1800.0       0.1710149632586
 1850.0       0.1757649211242
 1900.0       0.1805148908710
 1950.0       0.1852648715852
 2000.0       0.1900148624441
 2050.0       0.1947648627057
 2100.0       0.1995148716981
 2150.0       0.2042648888125
 2200.0       0.2090149134949
 2250.0       0.2137649452409
 2300.0       0.2185149835899
 2350.0       0.2232650281204
 2400.0       0.2280150784459
 2450.0       0.2327651342119
 2500.0       0.2375151950918
 2550.0       0.2422652607848
 2600.0       0.2470153310133
