# T (K)      Entropy (J K^-1 mol^-1)
# V = 157.405100 (a.u.^3)
    0.0      -6.8789252314496
   50.0     164.2829847499907
  100.0     256.4642457468311
  150.0     304.0694959813593
  200.0     340.3998601087796
  250.0     367.8839738507743
  300.0     390.7496967796606
  350.0     409.9917177186467
  400.0     426.4401552817128
  450.0     441.2605125727722
  500.0     454.4157544461659
  550.0     466.1049322530410
  600.0     476.9784522336142
  650.0     486.9416995165990
  700.0     496.2300985344627
  750.0     504.6402123609514
  800.0     512.6950265725428
  850.0     520.4395657723999
  900.0     527.5113036690691
  950.0     534.2978039291195
 1000.0     540.6811054846850
 1050.0     546.7373869782240
 1100.0     552.5512033918906
 1150.0     558.0845163704890
 1200.0     563.3807009170388
 1250.0     568.5127140720997
 1300.0     573.2790918517499
 1350.0     578.4097930507520
 1400.0     583.0993789191155
 1450.0     586.5047925095943
 1500.0     590.8603563753313
 1550.0     595.4212680081555
 1600.0     599.2567161539195
 1650.0     603.0367397605419
 1700.0     606.7494887874495
 1750.0     610.4438318187240
 1800.0     613.9346826383543
 1850.0     617.3578172735045
 1900.0     620.6481793406113
 1950.0     624.0136052212425
 2000.0     626.9972867191236
 2050.0     629.9787218918614
 2100.0     633.2331316931362
 2150.0     636.0822126692944
 2200.0     639.1242767609667
 2250.0     641.7615502834706
 2300.0     644.2066254007109
 2350.0     647.1808865936063
 2400.0     649.8251400285353
 2450.0     652.3181235215311
 2500.0     654.9655824130126
 2550.0     657.6728731091509
 2600.0     659.6486252831733
 2650.0     661.5532456789914
 2700.0     665.6843606291333
 2750.0     662.7719128254496
 2800.0     665.2043771388520
 2850.0     672.7874807522405
 2900.0     672.1273119566894
 2950.0     679.2545485552259
 3000.0     681.1954463857709
 3050.0     678.7258969475939
 3100.0     682.0742651359934
 3150.0     683.6686225872213
 3200.0     685.6642818602594
 3250.0     687.6317299329095
 3300.0     689.5222911652925
 3350.0     691.3478400933077
 3400.0     693.3046102418141
 3450.0     695.0191030549427
 3500.0     697.0447390600735
 3550.0     698.5953881528517
 3600.0     700.1768041757315
 3650.0     702.2750768535732
 3700.0     703.6640094726746
 3750.0     705.3147161885526
 3800.0     707.2184237771025
 3850.0     708.9040898497527
 3900.0     710.3773223859074
 3950.0     711.8512949810882
 4000.0     713.4126071048458
 4050.0     715.1112493307465
 4100.0     716.5017588232329
 4150.0     717.8415599443744
 4200.0     719.5163927378927
 4250.0     721.1327589349553
 4300.0     722.5984286485342
 4350.0     723.8524799272533
 4400.0     725.3421209367634
 4450.0     726.8877592510606
 4500.0     728.2396256066385
 4550.0     729.4656918132457
 4600.0     730.8226595654639
 4650.0     732.3262541660479
 4700.0     733.5448659534961
 4750.0     734.9213618389431
 4800.0     736.2667999099473
 4850.0     737.4299507793918
 4900.0     738.7739865031716
 4950.0     740.1254003538514
 5000.0     741.4555364624321
# V = 157.191743 (a.u.^3)
    0.0      -6.9472832637321
   50.0     164.1243639606922
  100.0     256.2858277639102
  150.0     303.8903102600949
  200.0     340.2182467570671
  250.0     367.7094730401969
  300.0     390.5604089889109
  350.0     409.8028544556651
  400.0     426.2711045214353
  450.0     441.0649243021398
  500.0     454.2213484960302
  550.0     465.9334239484151
  600.0     476.8006525308772
  650.0     486.7660103254053
  700.0     496.0531097057297
  750.0     504.4656208952330
  800.0     512.5191797938746
  850.0     520.2601759375485
  900.0     527.3325418475240
  950.0     534.1182206452644
 1000.0     540.5021023192886
 1050.0     546.5583985749913
 1100.0     552.3714300135024
 1150.0     557.9057710664232
 1200.0     563.2009011200120
 1250.0     568.3363972916808
 1300.0     573.1103930889008
 1350.0     578.2087072575683
 1400.0     582.9007657126264
 1450.0     586.3230509541352
 1500.0     590.7034487561000
 1550.0     595.2611375105006
 1600.0     599.0645345969991
 1650.0     602.8662716584674
 1700.0     606.5756506982125
 1750.0     610.2632298315467
 1800.0     613.7557922918755
 1850.0     617.1785420957360
 1900.0     620.4712389540224
 1950.0     623.8280343904498
 2000.0     626.8439751688336
 2050.0     629.8257858014833
 2100.0     633.0481349753160
 2150.0     635.9001771934873
 2200.0     638.9275367081733
 2250.0     641.5874799122354
 2300.0     644.0491311213851
 2350.0     647.0041029344176
 2400.0     649.6444632402374
 2450.0     652.1420251720104
 2500.0     654.7812877045183
 2550.0     657.4673759372710
 2600.0     659.4770331980015
 2650.0     661.4252546532316
 2700.0     665.3721441739714
 2750.0     663.0683535205965
 2800.0     665.5038943924824
 2850.0     672.4525518244641
 2900.0     672.1068100359856
 2950.0     678.6017657896274
 3000.0     680.5574568875902
 3050.0     678.6668211134314
 3100.0     681.8575262246329
 3150.0     683.4991805084264
 3200.0     685.4794906227074
 3250.0     687.4558744309282
 3300.0     689.3482386016707
 3350.0     691.1703551670765
 3400.0     693.1157593408730
 3450.0     694.8412343529609
 3500.0     696.8560582322990
 3550.0     698.4138880208416
 3600.0     700.0065987104086
 3650.0     702.0886574264869
 3700.0     703.4959761641595
 3750.0     705.1417558614995
 3800.0     707.0338321691954
 3850.0     708.7087849530203
 3900.0     710.1915472159282
 3950.0     711.6815672806326
 4000.0     713.2408997563330
 4050.0     714.9251192655299
 4100.0     716.3271105005476
 4150.0     717.6783748419998
 4200.0     719.3301073312064
 4250.0     720.9541466915787
 4300.0     722.4193009647133
 4350.0     723.6679634475380
 4400.0     725.1660714703291
 4450.0     726.7005506044746
 4500.0     728.0487051345984
 4550.0     729.2966723635312
 4600.0     730.6507444040350
 4650.0     732.1391385574203
 4700.0     733.3835076229502
 4750.0     734.7382155137855
 4800.0     736.0763186865821
 4850.0     737.2716741121724
 4900.0     738.5974082035907
 4950.0     739.9297843073770
 5000.0     741.2443504912445
# V = 156.978387 (a.u.^3)
    0.0      -7.0152775054939
   50.0     163.9656972195004
  100.0     256.1071122065798
  150.0     303.7110182204567
  200.0     340.0365499119452
  250.0     367.5345784727930
  300.0     390.3713656132164
  350.0     409.6142279565331
  400.0     426.1014179464318
  450.0     440.8698436177198
  500.0     454.0274048879635
  550.0     465.7613773040308
  600.0     476.6225842976141
  650.0     486.5899609264293
  700.0     495.8758253040917
  750.0     504.2905949141763
  800.0     512.3429531093609
  850.0     520.0805925633915
  900.0     527.1535492617052
  950.0     533.9384503802155
 1000.0     540.3228855434115
 1050.0     546.3791906430566
 1100.0     552.1914729939886
 1150.0     557.7267972155325
 1200.0     563.0209152006187
 1250.0     568.1597565063387
 1300.0     572.9410255474677
 1350.0     578.0083986177807
 1400.0     582.7028563874671
 1450.0     586.1411124556123
 1500.0     590.5453253898472
 1550.0     595.1000200366497
 1600.0     598.8726897363682
 1650.0     602.6952160555566
 1700.0     606.4013650480675
 1750.0     610.0824806002823
 1800.0     613.5766785446314
 1850.0     616.9990611305504
 1900.0     620.2939878314428
 1950.0     623.6425406839527
 2000.0     626.6893505596565
 2050.0     629.6715017413384
 2100.0     632.8631873685698
 2150.0     635.7180496643657
 2200.0     638.7313574652119
 2250.0     641.4129849903934
 2300.0     643.8904572859096
 2350.0     646.8270083452431
 2400.0     649.4636430625393
 2450.0     651.9655756163741
 2500.0     654.5970116807491
 2550.0     657.2628358304294
 2600.0     659.3048847865266
 2650.0     661.2947837547769
 2700.0     665.0655397519084
 2750.0     663.3438220472344
 2800.0     665.7823532543223
 2850.0     672.1242643261943
 2900.0     672.0791858993308
 2950.0     677.9693874272326
 3000.0     679.9392197034646
 3050.0     678.6023046448595
 3100.0     681.6422250472823
 3150.0     683.3291116093185
 3200.0     685.2947236083298
 3250.0     687.2796743870861
 3300.0     689.1737631108547
 3350.0     690.9925820234057
 3400.0     692.9271194938092
 3450.0     694.6630944131555
 3500.0     696.6676057907912
 3550.0     698.2322720703469
 3600.0     699.8357709777779
 3650.0     701.9023710098671
 3700.0     703.3272430395323
 3750.0     704.9682985597702
 3800.0     706.8492815844917
 3850.0     708.5139824576758
 3900.0     710.0058475002097
 3950.0     711.5112179992420
 4000.0     713.0686527335261
 4050.0     714.7390850980485
 4100.0     716.1520483323059
 4150.0     717.5142606577778
 4200.0     719.1438995613493
 4250.0     720.7753164399689
 4300.0     722.2399783971748
 4350.0     723.4834427621917
 4400.0     724.9896740975511
 4450.0     726.5134898216536
 4500.0     727.8580807236405
 4550.0     729.1269985362522
 4600.0     730.4782956204422
 4650.0     731.9521587080187
 4700.0     733.2211794362433
 4750.0     734.5550269056162
 4800.0     735.8861114018786
 4850.0     737.1122918172200
 4900.0     738.4205068196467
 4950.0     739.7346625714159
 5000.0     741.0343285663478
# V = 156.765030 (a.u.^3)
    0.0      -7.0829107608655
   50.0     163.8069850372714
  100.0     255.9281020798446
  150.0     303.5316205272313
  200.0     339.8547699192384
  250.0     367.3592942214570
  300.0     390.1825630234735
  350.0     409.4258346925026
  400.0     425.9311025433515
  450.0     440.6752637016568
  500.0     453.8339173554735
  550.0     465.5887981201446
  600.0     476.4442500752937
  650.0     486.4135549673107
  700.0     495.6982482052318
  750.0     504.1151389350475
  800.0     512.1663503774669
  850.0     519.9008172918408
  900.0     526.9743279932877
  950.0     533.7584946951870
 1000.0     540.1434570375437
 1050.0     546.1997651299102
 1100.0     552.0113338493907
 1150.0     557.5475968750803
 1200.0     562.8407447010682
 1250.0     567.9827949345183
 1300.0     572.7709965920878
 1350.0     577.8088570908707
 1400.0     582.5056418208435
 1450.0     585.9589785922025
 1500.0     590.3860002055276
 1550.0     594.9379268440920
 1600.0     598.6811767919789
 1650.0     602.5235793403334
 1700.0     606.2266365308078
 1750.0     609.9015852022860
 1800.0     613.3973433906949
 1850.0     616.8193761605718
 1900.0     620.1164290180241
 1950.0     623.4571224811191
 2000.0     626.5334280486144
 2050.0     629.5158852718549
 2100.0     632.6782875874587
 2150.0     635.5358304870897
 2200.0     638.5357315759805
 2250.0     641.2380699456662
 2300.0     643.7306173950714
 2350.0     646.6496058794415
 2400.0     649.2826805270930
 2450.0     651.7887783841672
 2500.0     654.4127534237518
 2550.0     657.0592405673409
 2600.0     659.1321860485396
 2650.0     661.1618621304423
 2700.0     664.7644790962856
 2750.0     663.5985702599161
 2800.0     666.0400066365620
 2850.0     671.8025376196166
 2900.0     672.0445246233126
 2950.0     677.3571670363573
 3000.0     679.3404962508396
 3050.0     678.5324123640443
 3100.0     681.4283436021032
 3150.0     683.1584227500920
 3200.0     685.1099798189565
 3250.0     687.1031332654659
 3300.0     688.9988691028456
 3350.0     690.8145234349406
 3400.0     692.7386874578343
 3450.0     694.4846858037164
 3500.0     696.4793783057297
 3550.0     698.0505409933234
 3600.0     699.6643277627161
 3650.0     701.7162153262302
 3700.0     703.1578178341841
 3750.0     704.7943495624750
 3800.0     706.6647708441361
 3850.0     708.3196756176254
 3900.0     709.8202216285387
 3950.0     711.3402539328345
 4000.0     712.8958718412946
 4050.0     714.5531449770548
 4100.0     715.9765766037775
 4150.0     717.3492278747542
 4200.0     718.9577677756612
 4250.0     720.5962701253519
 4300.0     722.0604626122536
 4350.0     723.2989172011522
 4400.0     724.8129323133273
 4450.0     726.3265744290202
 4500.0     727.6677481024665
 4550.0     728.9566775207991
 4600.0     730.3053189439049
 4650.0     731.7653122838503
 4700.0     733.0578924005162
 4750.0     734.3717958224092
 4800.0     735.6961740491113
 4850.0     736.9518165377034
 4900.0     738.2432855483227
 4950.0     739.5400284790363
 5000.0     740.8254559445054
# V = 156.551674 (a.u.^3)
    0.0      -7.1501858891015
   50.0     163.6482279286796
  100.0     255.7488004375906
  150.0     303.3521178539772
  200.0     339.6729071278960
  250.0     367.1836244267203
  300.0     389.9939975244419
  350.0     409.2376710708456
  400.0     425.7601654172235
  450.0     440.4811776149951
  500.0     453.6408795203294
  550.0     465.4156922947958
  600.0     476.2656524467005
  650.0     486.2367961562622
  700.0     495.5203813321355
  750.0     503.9392575509027
  800.0     511.9893755211696
  850.0     519.7208517906516
  900.0     526.7948801569885
  950.0     533.5783551754645
 1000.0     539.9638187124937
 1050.0     546.0201240138823
 1100.0     551.8310141189697
 1150.0     557.3681721356489
 1200.0     562.6603911875870
 1250.0     567.8055158472902
 1300.0     572.6003137127847
 1350.0     577.6100724592080
 1400.0     582.3091127283453
 1450.0     585.7766509670117
 1500.0     590.2254873710108
 1550.0     594.7748693829301
 1600.0     598.4899908981472
 1650.0     602.3513680095482
 1700.0     606.0514699190110
 1750.0     609.7205447306233
 1800.0     613.2177888559919
 1850.0     616.6394889965169
 1900.0     619.9385656093407
 1950.0     623.2717781306015
 2000.0     626.3762230531639
 2050.0     629.3589522205905
 2100.0     632.4934343212786
 2150.0     635.3535200714886
 2200.0     638.3406514520115
 2250.0     641.0627392796160
 2300.0     643.5696251817355
 2350.0     646.4718986410455
 2400.0     649.1015766798398
 2450.0     651.6116370637210
 2500.0     654.2285119970428
 2550.0     656.8565777113927
 2600.0     658.9589430854329
 2650.0     661.0265194305665
 2700.0     664.4688927507522
 2750.0     663.8328543880234
 2800.0     666.2771118445233
 2850.0     671.4872896621587
 2900.0     672.0029127613448
 2950.0     676.7648538988478
 3000.0     678.7610437971817
 3050.0     678.4572102174362
 3100.0     681.2158635713527
 3150.0     682.9871209075300
 3200.0     684.9252582364104
 3250.0     686.9262545875171
 3300.0     688.8235610611963
 3350.0     690.6361822195496
 3400.0     692.5504599310100
 3450.0     694.3060111345054
 3500.0     696.2913722849054
 3550.0     697.8686954909908
 3600.0     699.4922759652679
 3650.0     701.5301880559083
 3700.0     702.9877084146641
 3750.0     704.6199142376690
 3800.0     706.4802987457640
 3850.0     708.1258575667572
 3900.0     709.6346679604757
 3950.0     711.1686819924859
 4000.0     712.7225629824678
 4050.0     714.3672970160750
 4100.0     715.8006996720068
 4150.0     717.1832871557453
 4200.0     718.7717102896919
 4250.0     720.4170097237028
 4300.0     721.8807553024476
 4350.0     723.1143860801099
 4400.0     724.6358496703525
 4450.0     726.1398019069433
 4500.0     727.4777029230743
 4550.0     728.7857166288589
 4600.0     730.1318202003444
 4650.0     731.5785969073002
 4700.0     732.8936577113892
 4750.0     734.1885220661302
 4800.0     735.5065025491331
 4850.0     736.7902611333938
 4900.0     738.0657476395151
 4950.0     739.3458752452177
 5000.0     740.6177176218165
# V = 156.338317 (a.u.^3)
    0.0      -7.2171058074219
   50.0     163.4894264130620
  100.0     255.5692103828601
  150.0     303.1725108829336
  200.0     339.4909618902412
  250.0     367.0075732977457
  300.0     389.8056653544633
  350.0     409.0497334336292
  400.0     425.5886137929737
  450.0     440.2875782957217
  500.0     453.4482848911828
  550.0     465.2420658258115
  600.0     476.0867940361985
  650.0     486.0596882624854
  700.0     495.3422276556264
  750.0     503.7629554312308
  800.0     511.8120325284355
  850.0     519.5406977535935
  900.0     526.6152079017236
  950.0     533.3980334308081
 1000.0     539.7839725087280
 1050.0     545.8402693050747
 1100.0     551.6505153658928
 1150.0     557.1885251209295
 1200.0     562.4798562506348
 1250.0     567.6279225698925
 1300.0     572.4289845260874
 1350.0     577.4120343253023
 1400.0     582.1132596619493
 1450.0     585.5941312081977
 1500.0     590.0638012969730
 1550.0     594.6108592983743
 1600.0     598.2991271021513
 1650.0     602.1785886694272
 1700.0     605.8758700651617
 1750.0     609.5393602945702
 1800.0     613.0380169988175
 1850.0     616.4594014776475
 1900.0     619.7604007512037
 1950.0     623.0865059495561
 2000.0     626.2177512545702
 2050.0     629.2007186863542
 2100.0     632.3086262337862
 2150.0     635.1711188312446
 2200.0     638.1461093708488
 2250.0     640.8869975691704
 2300.0     643.4074946129465
 2350.0     646.2938897846409
 2400.0     648.9203325828754
 2450.0     651.4341553024291
 2500.0     654.0442864450052
 2550.0     656.6548346079580
 2600.0     658.7851621011681
 2650.0     660.8887858159310
 2700.0     664.1787100545935
 2750.0     664.0469350910963
 2800.0     666.4939306324140
 2850.0     671.1784369891119
 2900.0     671.9544383607301
 2950.0     676.1921929563570
 3000.0     678.2006154077000
 3050.0     678.3767652893216
 3100.0     681.0047663176383
 3150.0     682.8152131759249
 3200.0     684.7405578223204
 3250.0     686.7490419326950
 3300.0     688.6478435441310
 3350.0     690.4575612411008
 3400.0     692.3624335516225
 3450.0     694.1270730580018
 3500.0     696.1035841729836
 3550.0     697.6867362737760
 3600.0     699.3196226017021
 3650.0     701.3442868363012
 3700.0     702.8169227812713
 3750.0     704.4449980432424
 3800.0     706.2958640634580
 3850.0     707.9325213173985
 3900.0     709.4491848238348
 3950.0     710.9965092061207
 4000.0     712.5487321594536
 4050.0     714.1815392930193
 4100.0     715.6244219661526
 4150.0     717.0164493455815
 4200.0     718.5857253871866
 4250.0     720.2375372421088
 4300.0     721.7008581871239
 4350.0     722.9298486998503
 4400.0     724.4584297799865
 4450.0     725.9531696897702
 4500.0     727.2879407589885
 4550.0     728.6141232955999
 4600.0     729.9578053137974
 4650.0     731.3920101568259
 4700.0     732.7284867554217
 4750.0     734.0052054320894
 4800.0     735.3170927496157
 4850.0     736.6276386840015
 4900.0     737.8878963959875
 4950.0     739.1521959647664
 5000.0     740.4110983322729
# V = 156.124961 (a.u.^3)
    0.0      -7.2836734917443
   50.0     163.3305810143121
  100.0     255.3893350695011
  150.0     302.9928003046212
  200.0     339.3089345612302
  250.0     366.8311451135999
  300.0     389.6175626838688
  350.0     408.8620180570330
  400.0     425.4164550172200
  450.0     440.0944585576743
  500.0     453.2561268622227
  550.0     465.0679248105337
  600.0     475.9076775107998
  650.0     485.8822351176348
  700.0     495.1637901945924
  750.0     503.5862373234128
  800.0     511.6343254530246
  850.0     519.3603569006762
  900.0     526.4353134101663
  950.0     533.2175310963671
 1000.0     539.6039203979063
 1050.0     545.6602030449383
 1100.0     551.4698391773862
 1150.0     557.0086579882083
 1200.0     562.2991415052275
 1250.0     567.4500184818113
 1300.0     572.2570167769363
 1350.0     577.2147321097451
 1400.0     581.9180730081144
 1450.0     585.4114209695550
 1500.0     589.9009566391777
 1550.0     594.4459084330678
 1600.0     598.1085803632832
 1650.0     602.0052480371783
 1700.0     605.6998419021573
 1750.0     609.3580330196165
 1800.0     612.8580299097462
 1850.0     616.2791154722022
 1900.0     619.5819376411207
 1950.0     622.9013042233108
 2000.0     626.0580286012321
 2050.0     629.0412010419436
 2100.0     632.1238619630037
 2150.0     634.9886271848668
 2200.0     637.9520974739735
 2250.0     640.7108494667787
 2300.0     643.2442398943368
 2350.0     646.1155825164125
 2400.0     648.7389493129871
 2450.0     651.2563368075851
 2500.0     653.8600757927657
 2550.0     656.4539983819938
 2600.0     658.6108494039845
