# T (K)     Gibbs free energy (Ry.)
# P= 600.000000 GPa
    0.0       6.8333861820348
   50.0       6.8302290042484
  100.0       6.8220993489961
  150.0       6.8115257815217
  200.0       6.7993483400053
  250.0       6.7859738627331
  300.0       6.7716442677010
  350.0       6.7565202343778
  400.0       6.7407101446499
  450.0       6.7243071914803
  500.0       6.7073788421484
  550.0       6.6899681342830
  600.0       6.6721249907695
  650.0       6.6538844367588
  700.0       6.6352764207573
  750.0       6.6163282379966
  800.0       6.5970693736124
  850.0       6.5775052184293
  900.0       6.5576602615648
  950.0       6.5375500282710
 1000.0       6.5171871461024
 1050.0       6.4965867591703
 1100.0       6.4757588063756
 1150.0       6.4547136268390
 1200.0       6.4334605999672
 1250.0       6.4120083201231
 1300.0       6.3903613025785
 1350.0       6.3685337970231
 1400.0       6.3465198673594
 1450.0       6.3243438403332
 1500.0       6.3020270087035
 1550.0       6.2795104240563
 1600.0       6.2568576602790
 1650.0       6.2340529228563
 1700.0       6.2111028130773
 1750.0       6.1880118126480
 1800.0       6.1647837991469
 1850.0       6.1414225481324
 1900.0       6.1179316349991
 1950.0       6.0943144169443
 2000.0       6.0705702364048
 2050.0       6.0467031419120
 2100.0       6.0227257164396
 2150.0       5.9986324596247
 2200.0       5.9744320604535
 2250.0       5.9501159354578
 2300.0       5.9256981509874
 2350.0       5.9011758039906
 2400.0       5.8765474485362
 2450.0       5.8518223789956
 2500.0       5.8269969160448
 2550.0       5.8020742914024
 2600.0       5.7770565321085
 2650.0       5.7519548602829
 2700.0       5.7267575808648
 2750.0       5.7014656591343
 2800.0       5.6760878852753
 2850.0       5.6506148975259
 2900.0       5.6250687861166
 2950.0       5.5994411741110
 3000.0       5.5737390769107
 3050.0       5.5479475533519
 3100.0       5.5220759434131
 3150.0       5.4961232769871
 3200.0       5.4700986201001
 3250.0       5.4439972898647
 3300.0       5.4178186726435
 3350.0       5.3915694443631
 3400.0       5.3652488214162
 3450.0       5.3388559909881
 3500.0       5.3123931885008
 3550.0       5.2858553780819
 3600.0       5.2592630572618
 3650.0       5.2325929485226
 3700.0       5.2058566299102
 3750.0       5.1790617420180
 3800.0       5.1521982596996
 3850.0       5.1252664197114
 3900.0       5.0982749660683
 3950.0       5.0712223700445
 4000.0       5.0441098455229
 4050.0       5.0169356282633
 4100.0       4.9896999588841
 4150.0       4.9624113105084
 4200.0       4.9350639779075
 4250.0       4.9076547239410
 4300.0       4.8801824070445
 4350.0       4.8526595880845
 4400.0       4.8250842352742
 4450.0       4.7974466352274
 4500.0       4.7697560245578
 4550.0       4.7420120933318
 4600.0       4.7142183841609
 4650.0       4.6863685480437
 4700.0       4.6584649258890
 4750.0       4.6305114655129
 4800.0       4.6025053984376
 4850.0       4.5744496355200
 4900.0       4.5463441280378
 4950.0       4.5181876894754
 5000.0       4.4899802029496
# P= 602.000000 GPa
    0.0       6.8541786896565
   50.0       6.8510248616161
  100.0       6.8429003142912
  150.0       6.8323319463061
  200.0       6.8201597720452
  250.0       6.8067905360879
  300.0       6.7924662020902
  350.0       6.7773475466080
  400.0       6.7615427031770
  450.0       6.7451450058971
  500.0       6.7282221450545
  550.0       6.7108166963116
  600.0       6.6929788164459
  650.0       6.6747435276583
  700.0       6.6561407744860
  750.0       6.6371978617185
  800.0       6.6179442608138
  850.0       6.5983853971305
  900.0       6.5785457338953
  950.0       6.5584408019603
 1000.0       6.5380832212548
 1050.0       6.5174881353758
 1100.0       6.4966654919250
 1150.0       6.4756256246299
 1200.0       6.4543779037739
 1250.0       6.4329309394500
 1300.0       6.4112891509643
 1350.0       6.3894669583837
 1400.0       6.3674586909862
 1450.0       6.3452880083168
 1500.0       6.3229765655442
 1550.0       6.3004648540760
 1600.0       6.2778175119870
 1650.0       6.2550181102441
 1700.0       6.2320732137880
 1750.0       6.2089875452208
 1800.0       6.1857648659295
 1850.0       6.1624089521130
 1900.0       6.1389233662121
 1950.0       6.1153114877973
 2000.0       6.0915726304975
 2050.0       6.0677103103767
 2100.0       6.0437382025734
 2150.0       6.0196503016034
 2200.0       5.9954553971767
 2250.0       5.9711447941838
 2300.0       5.9467320558182
 2350.0       5.9222148962977
 2400.0       5.8975918981790
 2450.0       5.8728721694918
 2500.0       5.8480520377107
 2550.0       5.8231350149853
 2600.0       5.7981229101765
 2650.0       5.7730260063173
 2700.0       5.7478342613224
 2750.0       5.7225475493549
 2800.0       5.6971628531548
 2850.0       5.6716949824603
 2900.0       5.6461540660446
 2950.0       5.6205316426114
 3000.0       5.5948475424776
 3050.0       5.5690613303835
 3100.0       5.5431952440865
 3150.0       5.5172479146890
 3200.0       5.4912286908162
 3250.0       5.4651327382102
 3300.0       5.4389594115415
 3350.0       5.4127154803182
 3400.0       5.3864003053323
 3450.0       5.3600130260801
 3500.0       5.3335555314666
 3550.0       5.3070234461742
 3600.0       5.2804362444282
 3650.0       5.2537716237049
 3700.0       5.2270406569131
 3750.0       5.2002508961815
 3800.0       5.1733928613121
 3850.0       5.1464665892060
 3900.0       5.1194809215317
 3950.0       5.0924335864032
 4000.0       5.0653263226710
 4050.0       5.0381574119847
 4100.0       5.0109273704950
 4150.0       4.9836437001869
 4200.0       4.9563017363055
 4250.0       4.9288980285040
 4300.0       4.9014310194635
 4350.0       4.8739137514934
 4400.0       4.8463438260004
 4450.0       4.8187116387162
 4500.0       4.7910267889465
 4550.0       4.7632883133104
 4600.0       4.7354996904346
 4650.0       4.7076553529284
 4700.0       4.6797571384041
 4750.0       4.6518086030622
 4800.0       4.6238085502186
 4850.0       4.5957578754183
 4900.0       4.5676574691313
 4950.0       4.5395066552387
 5000.0       4.5113052753667
# P= 604.000000 GPa
    0.0       6.8749493729187
   50.0       6.8717988815832
  100.0       6.8636794292627
  150.0       6.8531162488666
  200.0       6.8409493257974
  250.0       6.8275853193380
  300.0       6.8132662333921
  350.0       6.7981529317492
  400.0       6.7823533230612
  450.0       6.7659608705043
  500.0       6.7490434662465
  550.0       6.7316432656276
  600.0       6.7138106385069
  650.0       6.6955806040758
  700.0       6.6769831030791
  750.0       6.6580454493383
  800.0       6.6387971037721
  850.0       6.6192435191635
  900.0       6.5994091371445
  950.0       6.5793094936974
 1000.0       6.5589572014191
 1050.0       6.5383674041428
 1100.0       6.5175500570964
 1150.0       6.4965154890690
 1200.0       6.4752730619181
 1250.0       6.4538314002360
 1300.0       6.4321948337360
 1350.0       6.4103779417340
 1400.0       6.3883752967305
 1450.0       6.3662099443527
 1500.0       6.3439038790169
 1550.0       6.3213970564414
 1600.0       6.2987551173532
 1650.0       6.2759610382904
 1700.0       6.2530213505613
 1750.0       6.2299410013250
 1800.0       6.2067236436963
 1850.0       6.1833730544785
 1900.0       6.1598927840010
 1950.0       6.1362862327492
 2000.0       6.1125526865855
 2050.0       6.0886951625221
 2100.0       6.0647283613093
 2150.0       6.0406458025916
 2200.0       6.0164563719918
 2250.0       5.9921512674846
 2300.0       5.9677435812510
 2350.0       5.9432316066950
 2400.0       5.9186139527746
 2450.0       5.8938995535571
 2500.0       5.8690847418156
 2550.0       5.8441732945501
 2600.0       5.8191668150805
 2650.0       5.7940747011099
 2700.0       5.7688884690869
 2750.0       5.7436069623809
 2800.0       5.7182159866195
 2850.0       5.6927532259823
 2900.0       5.6672174956621
 2950.0       5.6416002526113
 3000.0       5.6159334836474
 3050.0       5.5901525740578
 3100.0       5.5642919915054
 3150.0       5.5383499883942
 3200.0       5.5123361828279
 3250.0       5.4862455958563
 3300.0       5.4600775516735
 3350.0       5.4338389095866
 3400.0       5.4075291674640
 3450.0       5.3811474192839
 3500.0       5.3546952243332
 3550.0       5.3281688352603
 3600.0       5.3015867547253
 3650.0       5.2749276051570
 3700.0       5.2482019798330
 3750.0       5.2214173473774
 3800.0       5.1945647457227
 3850.0       5.1676440212422
 3900.0       5.1406641101498
 3950.0       5.1136220305316
 4000.0       5.0865200224175
 4050.0       5.0593564109572
 4100.0       5.0321319757297
 4150.0       5.0048532912612
 4200.0       4.9775166867772
 4250.0       4.9501185076722
 4300.0       4.9226567985125
 4350.0       4.8951450641315
 4400.0       4.8675805543804
 4450.0       4.8399537680100
 4500.0       4.8122746531381
 4550.0       4.7845416200518
 4600.0       4.7567580861680
 4650.0       4.7289192326404
 4700.0       4.7010264147216
 4750.0       4.6730828131216
 4800.0       4.6450887393426
 4850.0       4.6170431547782
 4900.0       4.5889478512579
 4950.0       4.5608026428412
 5000.0       4.5326073315715
# P= 606.000000 GPa
    0.0       6.8956983000173
   50.0       6.8925511324571
  100.0       6.8844367622390
  150.0       6.8738787575304
  200.0       6.8617170697007
  250.0       6.8483582809239
  300.0       6.8340444300779
  350.0       6.8189364585800
  400.0       6.8031420730676
  450.0       6.7867548540501
  500.0       6.7698428749843
  550.0       6.7524479114702
  600.0       6.7346205261655
  650.0       6.7163957351925
  700.0       6.6978034756859
  750.0       6.6788710699862
  800.0       6.6596279715290
  850.0       6.6400796535874
  900.0       6.6202505403829
  950.0       6.6001561725750
 1000.0       6.5798091557209
 1050.0       6.5592246346170
 1100.0       6.5384125710675
 1150.0       6.5173832893633
 1200.0       6.4961461436156
 1250.0       6.4747097717237
 1300.0       6.4530784200300
 1350.0       6.4312668162312
 1400.0       6.4092697544149
 1450.0       6.3871097183141
 1500.0       6.3648090189824
 1550.0       6.3423071003798
 1600.0       6.3196705457719
 1650.0       6.2968817764244
 1700.0       6.2739472926661
 1750.0       6.2508722502466
 1800.0       6.2276602017561
 1850.0       6.2043149245649
 1900.0       6.1808399577112
 1950.0       6.1572387211698
 2000.0       6.1335104740487
 2050.0       6.1096577669892
 2100.0       6.0856962612853
 2150.0       6.0616190312805
 2200.0       6.0374350538037
 2250.0       6.0131354245316
 2300.0       5.9887327960741
 2350.0       5.9642260037815
 2400.0       5.9396136809661
 2450.0       5.9149045998414
 2500.0       5.8900950970100
 2550.0       5.8651891990697
 2600.0       5.8401883161729
 2650.0       5.8151010133113
 2700.0       5.7899202730296
 2750.0       5.7646439669472
 2800.0       5.7392473412223
 2850.0       5.7137896836169
 2900.0       5.6882591305003
 2950.0       5.6626470596294
 3000.0       5.6369969689874
 3050.0       5.6112213529021
 3100.0       5.5853662543756
 3150.0       5.5594295668022
 3200.0       5.5334211649128
 3250.0       5.5073359316043
 3300.0       5.4811731617850
 3350.0       5.4549398008522
 3400.0       5.4286354765752
 3450.0       5.4022592395485
 3500.0       5.3758123359984
 3550.0       5.3492916145991
 3600.0       5.3227146571533
 3650.0       5.2960609619931
 3700.0       5.2693406677739
 3750.0       5.2425611644769
 3800.0       5.2157139818724
 3850.0       5.1887987849471
 3900.0       5.1618246014074
 3950.0       5.1347877718063
 4000.0       5.1076910140316
 4050.0       5.0805326943862
 4100.0       5.0533138440042
 4150.0       5.0260401527928
 4200.0       4.9987088983538
 4250.0       4.9713162306059
 4300.0       4.9438598133032
 4350.0       4.9163535952398
 4400.0       4.8887944896731
 4450.0       4.8611730923868
 4500.0       4.8334996866959
 4550.0       4.8057720831648
 4600.0       4.7779936407237
 4650.0       4.7501602566188
 4700.0       4.7222728242867
 4750.0       4.6943341647801
 4800.0       4.6663460353530
 4850.0       4.6383055429146
 4900.0       4.6102153435158
 4950.0       4.5820757215394
 5000.0       4.5538864413129
# P= 608.000000 GPa
    0.0       6.9164255387338
   50.0       6.9132816821287
  100.0       6.9051723811396
  150.0       6.8946195402205
  200.0       6.8824630717896
  250.0       6.8691094888782
  300.0       6.8548008602027
  350.0       6.8396981954621
  400.0       6.8239090215520
  450.0       6.8075270248753
  500.0       6.7906204401157
  550.0       6.7732307026603
  600.0       6.7554085482117
  650.0       6.7371889897737
  700.0       6.7186019610450
  750.0       6.6996747923821
  800.0       6.6804369327141
  850.0       6.6608938690415
  900.0       6.6410700122627
  950.0       6.6209809072745
 1000.0       6.6006391528753
 1050.0       6.5800598955329
 1100.0       6.5592531025989
 1150.0       6.5382290942980
 1200.0       6.5169972176666
 1250.0       6.4955661227443
 1300.0       6.4739399785727
 1350.0       6.4521336506195
 1400.0       6.4301421334364
 1450.0       6.4079873996501
 1500.0       6.3856920548841
 1550.0       6.3631950547073
 1600.0       6.3405638662241
 1650.0       6.3177803936565
 1700.0       6.2948511089493
 1750.0       6.2717813608561
 1800.0       6.2485746090053
 1850.0       6.2252346312960
 1900.0       6.2017649562743
 1950.0       6.1781690220072
 2000.0       6.1544460618480
 2050.0       6.1305981920116
 2100.0       6.1066419707325
 2150.0       6.0825700559541
 2200.0       6.0583915111035
 2250.0       6.0340973340761
 2300.0       6.0096997686650
 2350.0       5.9851981557493
 2400.0       5.9605911509901
 2450.0       5.9358873765857
 2500.0       5.9110831715294
 2550.0       5.8861827971018
 2600.0       5.8611874823933
 2650.0       5.8361050111656
 2700.0       5.8109297416129
 2750.0       5.7856586313752
 2800.0       5.7602569721982
 2850.0       5.7348044105662
 2900.0       5.7092790257621
 2950.0       5.6836721188618
 3000.0       5.6580380666564
 3050.0       5.6322677350292
 3100.0       5.6064181009908
 3150.0       5.5804867182044
 3200.0       5.5544837054404
 3250.0       5.5284038138465
 3300.0       5.5022463102080
 3350.0       5.4760182223838
 3400.0       5.4497193010202
 3450.0       5.4233485554135
 3500.0       5.3969069349512
 3550.0       5.3703918530343
 3600.0       5.3438200202946
 3650.0       5.3171717629137
 3700.0       5.2904567894284
 3750.0       5.2636824159424
 3800.0       5.2368406382915
 3850.0       5.2099309490305
 3900.0       5.1829624643702
 3950.0       5.1559308791904
 4000.0       5.1288393663706
 4050.0       5.1016863310657
 4100.0       5.0744730443175
 4150.0       5.0472043534255
 4200.0       5.0198784396540
 4250.0       4.9924912660539
 4300.0       4.9650401325361
 4350.0       4.9375394136453
 4400.0       4.9099857007183
 4450.0       4.8823696807084
 4500.0       4.8547019587689
 4550.0       4.8269797718445
 4600.0       4.7992064230522
 4650.0       4.7713784938850
 4700.0       4.7434964361261
 4750.0       4.7155627267140
 4800.0       4.6875805073759
 4850.0       4.6595451087256
 4900.0       4.6314600145848
 4950.0       4.6033259601670
 5000.0       4.5751426739220
# P= 610.000000 GPa
    0.0       6.9371311564435
   50.0       6.9339905980868
  100.0       6.9258863534842
  150.0       6.9153386644596
  200.0       6.9031873996911
  250.0       6.8898390108199
  300.0       6.8755355914135
  350.0       6.8604382103528
  400.0       6.8446542364667
  450.0       6.8282774509158
  500.0       6.8113762300703
  550.0       6.7939917076008
  600.0       6.7761747730258
  650.0       6.7579604361780
  700.0       6.7393786274878
  750.0       6.7204566848339
  800.0       6.7012240555390
  850.0       6.6816862337525
  900.0       6.6618676210289
  950.0       6.6417837660708
 1000.0       6.6214472611895
 1050.0       6.6008732552092
 1100.0       6.5800717200340
 1150.0       6.5590529722482
 1200.0       6.5378263524637
 1250.0       6.5164005217213
 1300.0       6.4947795776789
 1350.0       6.4729785132254
 1400.0       6.4509925027741
 1450.0       6.4288430573967
 1500.0       6.4065530557529
 1550.0       6.3840609878312
 1600.0       6.3614351472735
 1650.0       6.3386569585789
 1700.0       6.3157328678480
 1750.0       6.2926684016163
 1800.0       6.2694669339323
 1850.0       6.2461322431829
 1900.0       6.2226678482025
 1950.0       6.1990772037958
 2000.0       6.1753595185350
 2050.0       6.1515165054199
 2100.0       6.1275655574784
 2150.0       6.1034989444855
 2200.0       6.0793258119682
 2250.0       6.0550370644605
 2300.0       6.0306445669969
 2350.0       6.0061481303880
 2400.0       5.9815464306762
 2450.0       5.9568479516185
 2500.0       5.9320490332011
 2550.0       5.9071541567981
 2600.0       5.8821643822723
 2650.0       5.8570867625124
 2700.0       5.8319169428868
 2750.0       5.8066510235753
 2800.0       5.7812449344578
 2850.0       5.7557974617076
 2900.0       5.7302772363331
 2950.0       5.7046754851892
 3000.0       5.6790568444018
 3050.0       5.6532917881459
 3100.0       5.6274475992406
 3150.0       5.6015215104885
 3200.0       5.5755238723747
 3250.0       5.5494493105633
 3300.0       5.5232970648638
 3350.0       5.4970742420458
 3400.0       5.4707807087491
 3450.0       5.4444154350126
 3500.0       5.4179790892702
 3550.0       5.3914696189932
 3600.0       5.3649029123231
 3650.0       5.3382600762117
 3700.0       5.3115504130823
 3750.0       5.2847811698295
 3800.0       5.2579447830971
 3850.0       5.2310405817898
 3900.0       5.2040777676938
 3950.0       5.1770514212373
 4000.0       5.1499651478827
 4050.0       5.1228173893760
 4100.0       5.0956096452518
 4150.0       5.0683459613949
 4200.0       5.0410253788898
 4250.0       5.0136436823571
 4300.0       4.9861978245017
 4350.0       4.9587025877593
 4400.0       4.9311542559444
 4450.0       4.9035436014275
 4500.0       4.8758815380946
 4550.0       4.8481647548731
 4600.0       4.8203965016880
 4650.0       4.7925740130452
 4700.0       4.7646973188561
 4750.0       4.7367685671931
 4800.0       4.7087922241277
 4850.0       4.6807619206979
 4900.0       4.6526819327315
 4950.0       4.6245534271470
 5000.0       4.5963760983155
# P= 612.000000 GPa
    0.0       6.9578152201264
   50.0       6.9546779474243
  100.0       6.9465787463939
  150.0       6.9360361973636
  200.0       6.9238901206225
  250.0       6.9105469139667
  300.0       6.8962486909596
  350.0       6.8811565708092
  400.0       6.8653777853589
  450.0       6.8490061996942
  500.0       6.8321103128660
  550.0       6.8147309942896
  600.0       6.7969192685845
  650.0       6.7787101423590
  700.0       6.7601335429337
  750.0       6.7412168152347
  800.0       6.7219894078094
  850.0       6.7024568155445
  900.0       6.6826434345243
  950.0       6.6625648168323
 1000.0       6.6422335485556
 1050.0       6.6216647815535
 1100.0       6.6008684913119
 1150.0       6.5798549911860
 1200.0       6.5586336159954
 1250.0       6.5372130366662
 1300.0       6.5155972852492
 1350.0       6.4938014719683
 1400.0       6.4718209309984
 1450.0       6.4496767601810
 1500.0       6.4273920902070
 1550.0       6.4049049677442
 1600.0       6.3822844570714
 1650.0       6.3595115393773
 1700.0       6.3365926373954
 1750.0       6.3135334405845
 1800.0       6.2903372446136
 1850.0       6.2670078283215
 1900.0       6.2435487016004
 1950.0       6.2199633346652
 2000.0       6.1962509122563
 2050.0       6.1724127746427
 2100.0       6.1484670889411
 2150.0       6.1244057643407
 2200.0       6.1002380240727
 2250.0       6.0759546836235
 2300.0       6.0515672586417
 2350.0       6.0270759950816
 2400.0       6.0024795874449
 2450.0       5.9777863923657
 2500.0       5.9529927494530
 2550.0       5.9281033459083
 2600.0       5.9031190839328
 2650.0       5.8780463347826
