#T (K)      V (a.u.^3)
# P= 600.000000 GPa
    0.0     153.0148534309782
   50.0     153.0395399698217
  100.0     153.0771577256788
  150.0     153.1154451069544
  200.0     153.1542464934060
  250.0     153.1928411899355
  300.0     153.2315853284717
  350.0     153.2712298601170
  400.0     153.3098602404935
  450.0     153.3485596932348
  500.0     153.3890475609469
  550.0     153.4277702025802
  600.0     153.4665258071165
  650.0     153.5052928364303
  700.0     153.5440414225024
  750.0     153.5828438735488
  800.0     153.6215878602880
  850.0     153.6605540317263
  900.0     153.6995357831173
  950.0     153.7385760785119
 1000.0     153.7776177306992
 1050.0     153.8166542075208
 1100.0     153.8557535329425
 1150.0     153.8948742862878
 1200.0     153.9339467648888
 1250.0     153.9730912280226
 1300.0     154.0115780642164
 1350.0     154.0507020516278
 1400.0     154.0924978261153
 1450.0     154.1318588677253
 1500.0     154.1715373036847
 1550.0     154.2073214393960
 1600.0     154.2472685325062
 1650.0     154.2865617944213
 1700.0     154.3249236863842
 1750.0     154.3641871120998
 1800.0     154.4034678115835
 1850.0     154.4427707050939
 1900.0     154.4819973530195
 1950.0     154.5213177966384
 2000.0     154.5605161949510
 2050.0     154.5955514059747
 2100.0     154.6347049894408
 2150.0     154.6741487301505
 2200.0     154.7146415215676
 2250.0     154.7553444608632
 2300.0     154.7924368493965
 2350.0     154.8306008437089
 2400.0     154.8700538703659
 2450.0     154.9093791580527
 2500.0     154.9486322759985
 2550.0     154.9899340031860
 2600.0     155.0316323509428
 2650.0     155.0666196286660
 2700.0     155.1074062134961
 2750.0     155.1457416376761
 2800.0     155.0924295518560
 2850.0     155.1300925292425
 2900.0     155.1683358483023
 2950.0     155.2065292988350
 3000.0     155.3413835536421
 3050.0     155.3804836528952
 3100.0     155.4211851453455
 3150.0     155.4604798816128
 3200.0     155.5004954208984
 3250.0     155.5400934842272
 3300.0     155.5790364370565
 3350.0     155.6180266647025
 3400.0     155.6581536313804
 3450.0     155.6990583597497
 3500.0     155.7381292341485
 3550.0     155.7803462819805
 3600.0     155.8179899415556
 3650.0     155.8584180765623
 3700.0     155.8978201748549
 3750.0     155.9355271037591
 3800.0     155.9756470523405
 3850.0     156.0166752821173
 3900.0     156.0593415895532
 3950.0     156.0980564125088
 4000.0     156.1367696499564
 4050.0     156.1758277552632
 4100.0     156.2173024556247
 4150.0     156.2538880264118
 4200.0     156.2934106114584
 4250.0     156.3342686649627
 4300.0     156.3733385574494
 4350.0     156.4142318523165
 4400.0     156.4541938555811
 4450.0     156.4940498127031
 4500.0     156.5365190849840
 4550.0     156.5766944518706
 4600.0     156.6140950030379
 4650.0     156.6545927360393
 4700.0     156.6944078648336
 4750.0     156.7305998939070
 4800.0     156.7749665841006
 4850.0     156.8123826629689
 4900.0     156.8498969867547
 4950.0     156.8913389402492
 5000.0     156.9363961822659
# P= 602.000000 GPa
    0.0     152.8540777030745
   50.0     152.8786678643705
  100.0     152.9161904404377
  150.0     152.9543902991668
  200.0     152.9930731703450
  250.0     153.0315809750228
  300.0     153.0702295160226
  350.0     153.1096963212368
  400.0     153.1482417208691
  450.0     153.1868591346056
  500.0     153.2271104944793
  550.0     153.2657523193655
  600.0     153.3044277918946
  650.0     153.3431149805648
  700.0     153.3817853130004
  750.0     153.4205072290018
  800.0     153.4591916794460
  850.0     153.4980663842856
  900.0     153.5369567784452
  950.0     153.5759022925815
 1000.0     153.6148479626316
 1050.0     153.6537928176966
 1100.0     153.6927968608737
 1150.0     153.7318220757693
 1200.0     153.7708039025235
 1250.0     153.8098535747839
 1300.0     153.8482888074924
 1350.0     153.8873215623605
 1400.0     153.9288215856706
 1450.0     153.9680789509287
 1500.0     154.0076734211799
 1550.0     154.0435755233123
 1600.0     154.0833845584204
 1650.0     154.1225820785899
 1700.0     154.1609107402174
 1750.0     154.2000819015892
 1800.0     154.2392702193950
 1850.0     154.2784803739275
 1900.0     154.3176201668907
 1950.0     154.3568487281319
 2000.0     154.3959580337258
 2050.0     154.4311554506399
 2100.0     154.4702276014476
 2150.0     154.5095712033659
 2200.0     154.5499093419936
 2250.0     154.5904383184059
 2300.0     154.6275763757866
 2350.0     154.6657226414423
 2400.0     154.7050789048608
 2450.0     154.7443204371677
 2500.0     154.7834916820733
 2550.0     154.8245975778017
 2600.0     154.8660801244398
 2650.0     154.9012312893625
 2700.0     154.9418592995230
 2750.0     154.9801621195552
 2800.0     154.9316265543030
 2850.0     154.9692381707683
 2900.0     155.0074160039055
 2950.0     155.0455492146950
 3000.0     155.1754574633742
 3050.0     155.2144918146861
 3100.0     155.2550462578215
 3150.0     155.2942620009539
 3200.0     155.3341690892621
 3250.0     155.3736788493038
 3300.0     155.4125626813237
 3350.0     155.4514948733853
 3400.0     155.4915104331510
 3450.0     155.5322666599762
 3500.0     155.5712773543091
 3550.0     155.6132804621751
 3600.0     155.6509407743628
 3650.0     155.6912444341704
 3700.0     155.7305704161572
 3750.0     155.7682864513991
 3800.0     155.8083014434658
 3850.0     155.8491800003478
 3900.0     155.8916288029863
 3950.0     155.9303044097932
 4000.0     155.9689800219853
 4050.0     156.0079843631960
 4100.0     156.0492992071887
 4150.0     156.0859432307349
 4200.0     156.1253973190150
 4250.0     156.1661264264018
 4300.0     156.2051378541912
 4350.0     156.2459027221267
 4400.0     156.2857794998141
 4450.0     156.3255481839840
 4500.0     156.3678251574145
 4550.0     156.4079044724672
 4600.0     156.4453257627384
 4650.0     156.4857156038112
 4700.0     156.5254495939495
 4750.0     156.5617069972733
 4800.0     156.6058133680089
 4850.0     156.6432458910146
 4900.0     156.6807726099772
 4950.0     156.7220727711039
 5000.0     156.7668482693256
# P= 604.000000 GPa
    0.0     152.6938050321058
   50.0     152.7182996526692
  100.0     152.7557272859713
  150.0     152.7938396136244
  200.0     152.8324047477658
  250.0     152.8708256540635
  300.0     152.9093788102435
  350.0     152.9486701735869
  400.0     152.9871305505468
  450.0     153.0256657918964
  500.0     153.0656843765265
  550.0     153.1042452171918
  600.0     153.1428403971554
  650.0     153.1814475212033
  700.0     153.2200394080276
  750.0     153.2586806045320
  800.0     153.2973048460583
  850.0     153.3360882016331
  900.0     153.3748873258209
  950.0     153.4137382429451
 1000.0     153.4525881975238
 1050.0     153.4914415472795
 1100.0     153.5303504989816
 1150.0     153.5692803888711
 1200.0     153.6081717288262
 1250.0     153.6471267669105
 1300.0     153.6855096049704
 1350.0     153.7244512475031
 1400.0     153.7656604394721
 1450.0     153.8048145216297
 1500.0     153.8443249754121
 1550.0     153.8803403184711
 1600.0     153.9200125266267
 1650.0     153.9591145376351
 1700.0     153.9974087996890
 1750.0     154.0364878516715
 1800.0     154.0755840034001
 1850.0     154.1147015864860
 1900.0     154.1537545598442
 1950.0     154.1928914149420
 2000.0     154.2319117257557
 2050.0     154.2672659187958
 2100.0     154.3062565763954
 2150.0     154.3455004265486
 2200.0     154.3856854687010
 2250.0     154.4260424534037
 2300.0     154.4632234370175
 2350.0     154.5013505385186
 2400.0     154.5406103479336
 2450.0     154.5797681658870
 2500.0     154.6188575272152
 2550.0     154.6597699899646
 2600.0     154.7010396132285
 2650.0     154.7363494201079
 2700.0     154.7768204590905
 2750.0     154.8150896537331
 2800.0     154.7712333513079
 2850.0     154.8087933700230
 2900.0     154.8469057533619
 2950.0     154.8849786947467
 3000.0     155.0100372067733
 3050.0     155.0490054855736
 3100.0     155.0894142334627
 3150.0     155.1285509577144
 3200.0     155.1683501628887
 3250.0     155.2077717835261
 3300.0     155.2465960627479
 3350.0     155.2854697779526
 3400.0     155.3253745752669
 3450.0     155.3659836275260
 3500.0     155.4049337516510
 3550.0     155.4467255424292
 3600.0     155.4844006197874
 3650.0     155.5245806790506
 3700.0     155.5638305027397
 3750.0     155.6015538893715
 3800.0     155.6414644312061
 3850.0     155.6821946727981
 3900.0     155.7244286423351
 3950.0     155.7630642433693
 4000.0     155.8017014475063
 4050.0     155.8406514995325
 4100.0     155.8818080381214
 4150.0     155.9185078965648
 4200.0     155.9578933232911
 4250.0     155.9984944369106
 4300.0     156.0374470291564
 4350.0     156.0780843862520
 4400.0     156.1178760698494
 4450.0     156.1575576964988
 4500.0     156.1996444506593
 4550.0     156.2396280345865
 4600.0     156.2770682356094
 4650.0     156.3173507382613
 4700.0     156.3570036688470
 4750.0     156.3933237822239
 4800.0     156.4371731934274
 4850.0     156.4746204847924
 4900.0     156.5121579443508
 4950.0     156.5533174876763
 5000.0     156.5978149303357
# P= 606.000000 GPa
    0.0     152.5340324214923
   50.0     152.5584323504299
  100.0     152.5957652246776
  150.0     152.6337900211472
  200.0     152.6722382141714
  250.0     152.7105722021836
  300.0     152.7490301717668
  350.0     152.7881484044997
  400.0     152.8265236993884
  450.0     152.8649766245989
  500.0     152.9047661530375
  550.0     152.9432458464400
  600.0     152.9817605214206
  650.0     153.0202874146872
  700.0     153.0588006177356
  750.0     153.0973609197364
  800.0     153.1359242857512
  850.0     153.1746164194711
  900.0     153.2133243690339
  950.0     153.2520809193578
 1000.0     153.2908353511478
 1050.0     153.3295973348741
 1100.0     153.3684114216868
 1150.0     153.4072461916301
 1200.0     153.4460471333668
 1250.0     153.4849077526731
 1300.0     153.5232373995175
 1350.0     153.5620880522021
 1400.0     153.6030112909231
 1450.0     153.6420624956187
 1500.0     153.6814888384924
 1550.0     153.7176127787644
 1600.0     153.7571493728190
 1650.0     153.7961561078293
 1700.0     153.8344148186221
 1750.0     153.8734019060830
 1800.0     153.9124060469723
 1850.0     153.9514312648241
 1900.0     153.9903974250224
 1950.0     154.0294427638323
 2000.0     154.0683741852109
 2050.0     154.1038797793086
 2100.0     154.1427889137580
 2150.0     154.1819333548597
 2200.0     154.2219668840757
 2250.0     154.2621538081325
 2300.0     154.2993749399290
 2350.0     154.3374814821018
 2400.0     154.3766451650518
 2450.0     154.4157193099080
 2500.0     154.4547267885482
 2550.0     154.4954482261089
 2600.0     154.5365076851171
 2650.0     154.5719709900518
 2700.0     154.6122866659772
 2750.0     154.6505212199380
 2800.0     154.6112475547970
 2850.0     154.6487557683795
 2900.0     154.6868027595015
 2950.0     154.7248153551486
 3000.0     154.8451197611992
 3050.0     154.8840216517038
 3100.0     154.9242860396858
 3150.0     154.9633437369951
 3200.0     155.0030356141851
 3250.0     155.0423692467125
 3300.0     155.0811335448981
 3350.0     155.1199483366802
 3400.0     155.1597430066123
 3450.0     155.2002062317922
 3500.0     155.2390953809369
 3550.0     155.2806785084749
 3600.0     155.3183664599408
 3650.0     155.3584237803367
 3700.0     155.3975973578747
 3750.0     155.4353263726185
 3800.0     155.4751329732244
 3850.0     155.5157162237194
 3900.0     155.5577380233110
 3950.0     155.5963328537739
 4000.0     155.6349308492126
 4050.0     155.6738261197204
 4100.0     155.7148258797115
 4150.0     155.7515790078107
 4200.0     155.7908955689295
 4250.0     155.8313696411974
 4300.0     155.8702630327008
 4350.0     155.9107737832508
 4400.0     155.9504805350697
 4450.0     155.9900752199186
 4500.0     156.0319739007956
 4550.0     156.0718620559742
 4600.0     156.1093193888233
 4650.0     156.1494950733056
 4700.0     156.1890669769588
 4750.0     156.2254472369630
 4800.0     156.2690429966368
 4850.0     156.3065033420181
 4900.0     156.3440499262679
 4950.0     156.3850700471271
 5000.0     156.4292930816477
# P= 608.000000 GPa
    0.0     152.3747568648688
   50.0     152.3990629541943
  100.0     152.4363012521333
  150.0     152.4742385240530
  200.0     152.5125705892494
  250.0     152.5508176114300
  300.0     152.5891805953089
  350.0     152.6281279793707
  400.0     152.6664181316096
  450.0     152.7047886001237
  500.0     152.7443527781216
  550.0     152.7827511103513
  600.0     152.8211851146323
  650.0     152.8596316009008
  700.0     152.8980658818112
  750.0     152.9365451353885
  800.0     152.9750469739957
  850.0     153.0136479774936
  900.0     153.0522648934399
  950.0     153.0909272646832
 1000.0     153.1295863837994
 1050.0     153.1682571339005
 1100.0     153.2069765915542
 1150.0     153.2457164559229
 1200.0     153.2844270765591
 1250.0     153.3231935070728
 1300.0     153.3614691629808
 1350.0     153.4002289650609
 1400.0     153.4408710307166
 1450.0     153.4798197856220
 1500.0     153.5191619565375
 1550.0     153.5553898952045
 1600.0     153.5947920455002
 1650.0     153.6337037633949
 1700.0     153.6719257153154
 1750.0     153.7108210257931
 1800.0     153.7497333075236
 1850.0     153.7886663258974
 1900.0     153.8275457798314
 1950.0     153.8664997471924
 2000.0     153.9053423860057
 2050.0     153.9409940335667
 2100.0     153.9798216227317
 2150.0     154.0188670020850
 2200.0     154.0587505345927
 2250.0     154.0987693552248
 2300.0     154.1360279024580
 2350.0     154.1741125124599
 2400.0     154.2131803582510
 2450.0     154.2521708484928
 2500.0     154.2910964465514
 2550.0     154.3316292271709
 2600.0     154.3724812855051
 2650.0     154.4080930080325
 2700.0     154.4482548973478
 2750.0     154.4864538043347
 2800.0     154.4516668338095
 2850.0     154.4891230147258
 2900.0     154.5271046595630
 2950.0     154.5650568408959
 3000.0     154.6807021225076
 3050.0     154.7195373505855
 3100.0     154.7596587109344
 3150.0     154.7986373257460
 3200.0     154.8382224280305
 3250.0     154.8774682085721
 3300.0     154.9161721581955
 3350.0     154.9549275617291
 3400.0     154.9946127243528
 3450.0     155.0349314706936
 3500.0     155.0737592613334
 3550.0     155.1151363280357
 3600.0     155.1528352448838
 3650.0     155.1927706909095
 3700.0     155.2318679516367
 3750.0     155.2696008971955
 3800.0     155.3093040533178
 3850.0     155.3497416788730
 3900.0     155.3915539126690
 3950.0     155.4301071962169
 4000.0     155.4686651852049
 4050.0     155.5075052493561
 4100.0     155.5483497393247
 4150.0     155.5851535394517
 4200.0     155.6244010300679
 4250.0     155.6647489953008
 4300.0     155.7035827945066
 4350.0     155.7439679185417
 4400.0     155.7835898151160
 4450.0     155.8230977344794
 4500.0     155.8648104453387
 4550.0     155.9046034877832
 4600.0     155.9420761339596
 4650.0     155.9821455526429
 4700.0     156.0216364894135
 4750.0     156.0580743478249
 4800.0     156.1014197232786
 4850.0     156.1388913969966
 4900.0     156.1764455634743
 4950.0     156.2173273934202
 5000.0     156.2612796664327
# P= 610.000000 GPa
    0.0     152.2159754269757
   50.0     152.2401884876241
  100.0     152.2773323959699
  150.0     152.3151821663343
  200.0     152.3533988703498
  250.0     152.3915589373981
  300.0     152.4298271298799
  350.0     152.4686058990616
  400.0     152.5068108383909
  450.0     152.5450987135848
  500.0     152.5844411931228
  550.0     152.6227580397468
  600.0     152.6611111705174
  650.0     152.6994770530539
  700.0     152.7378322071947
  750.0     152.7762302576647
  800.0     152.8146699149713
  850.0     152.8531798876617
  900.0     152.8917058796587
  950.0     152.9302742400105
 1000.0     152.9688383249128
 1050.0     153.0074179215563
 1100.0     153.0460429649789
 1150.0     153.0846881393285
 1200.0     153.1233085562212
 1250.0     153.1619810043410
 1300.0     153.2002018623507
 1350.0     153.2388709624399
 1400.0     153.2792366558462
 1450.0     153.3180833251246
 1500.0     153.3573412953152
 1550.0     153.3936686338589
 1600.0     153.4329375136370
 1650.0     153.4717544466892
 1700.0     153.5099384768011
 1750.0     153.5487421897827
 1800.0     153.5875628184094
 1850.0     153.6264037779199
 1900.0     153.6651965679886
 1950.0     153.7040593336347
 2000.0     153.7428132886326
 2050.0     153.7786057020514
 2100.0     153.8173516920953
 2150.0     153.8562984037595
 2200.0     153.8960334512093
 2250.0     153.9358860907739
 2300.0     153.9731793433801
 2350.0     154.0112406905215
 2400.0     154.0502129438980
 2450.0     154.0891198095364
 2500.0     154.1279635235892
 2550.0     154.1683099973733
 2600.0     154.2089574396139
 2650.0     154.2447125128310
 2700.0     154.2847221850847
 2750.0     154.3228844305351
 2800.0     154.2924888094151
 2850.0     154.3298927433231
 2900.0     154.3678090821265
 2950.0     154.4057008137071
 3000.0     154.5167813269857
 3050.0     154.5555495783223
 3100.0     154.5955292536556
 3150.0     154.6344287228291
 3200.0     154.6739075975362
 3250.0     154.7130657543796
 3300.0     154.7517088668757
 3350.0     154.7904044678592
 3400.0     154.8299807400120
 3450.0     154.8701563207790
 3500.0     154.9089223574483
 3550.0     154.9500959583665
 3600.0     154.9878039678948
 3650.0     155.0276184082980
 3700.0     155.0666393022487
 3750.0     155.1043744875891
 3800.0     155.1439746671967
 3850.0     155.1842680122148
 3900.0     155.2258732674608
 3950.0     155.2643842493238
 4000.0     155.3029014610543
 4050.0     155.3416858056661
 4100.0     155.3823765345227
 4150.0     155.4192284640241
 4200.0     155.4584067084003
 4250.0     155.4986294806053
 4300.0     155.5374033501637
 4350.0     155.5776637335500
 4400.0     155.6172009002307
 4450.0     155.6566222574245
 4500.0     155.6981510330928
 4550.0     155.7378493149301
 4600.0     155.7753354707149
 4650.0     155.8152991683639
 4700.0     155.8547092075962
 4750.0     155.8912020855072
 4800.0     155.9343003237926
 4850.0     155.9717817135342
 4900.0     156.0093418435922
 4950.0     156.0500865242242
 5000.0     156.0937716283816
# P= 612.000000 GPa
    0.0     152.0576851938254
   50.0     152.0818060074579
  100.0     152.1188557151046
  150.0     152.1566179917000
  200.0     152.1947200981613
  250.0     152.2327932072247
  300.0     152.2709668288330
  350.0     152.3095792072008
  400.0     152.3476988651024
  450.0     152.3859040321545
  500.0     152.4250284324947
  550.0     152.4632636409590
  600.0     152.5015357075981
  650.0     152.5398208010788
  700.0     152.5780966305194
  750.0     152.6164133107449
  800.0     152.6547901078524
  850.0     152.6932091804273
  900.0     152.7316443320506
  950.0     152.7701189187223
 1000.0     152.8085881409242
 1050.0     152.8470767435419
 1100.0     152.8856075517982
 1150.0     152.9241582455845
 1200.0     152.9626885759510
 1250.0     153.0012672312761
 1300.0     153.0394325302812
 1350.0     153.0780110405249
 1400.0     153.1181051372922
 1450.0     153.1568500855533
 1500.0     153.1960237769426
 1550.0     153.2324459914474
 1600.0     153.2715827852012
 1650.0     153.3103051533749
 1700.0     153.3484501452245
 1750.0     153.3871624069292
 1800.0     153.4258915383715
 1850.0     153.4646406555837
 1900.0     153.5033468075718
 1950.0     153.5421185205753
 2000.0     153.5807838823917
 2050.0     153.6167118154254
 2100.0     153.6553761690680
 2150.0     153.6942245877953
 2200.0     153.7338126703760
 2250.0     153.7735010404959
 2300.0     153.8108262453817
 2350.0     153.8488629561798
 2400.0     153.8877399708642
 2450.0     153.9265632621590
 2500.0     153.9653250755744
 2550.0     154.0054876008742
 2600.0     154.0459331476268
 2650.0     154.0818265006265
 2700.0     154.1216855414331
